0,4,16,12,-9,-4,13,13,-106,-80,-113,-133,-153
1,-6,6,13,0,-10,9,0,-106,-80,-120,-146,-160
2,-13,4,17,5,-16,10,-6,-100,-80,-120,-146,-153
3,-13,0,13,6,-13,6,-13,-93,-80,-120,-146,-146
4,-22,9,32,6,-28,20,-13,-100,-80,-126,-146,-153
5,-26,6,33,10,-30,20,-13,-106,-80,-133,-146,-146
6,-33,0,33,17,-33,16,-13,-106,-86,-133,-153,-140
7,-40,0,40,20,-40,20,-13,-120,-93,-133,-160,-146
8,-20,4,24,8,-22,13,-13,-120,-86,-140,-160,-153
9,-6,6,13,0,-10,9,-13,-120,-80,-146,-160,-160
10,-6,9,16,-1,-12,12,-6,-113,-86,-146,-166,-166
11,-6,6,13,0,-10,9,0,-106,-93,-146,-160,-160
12,-6,10,17,-1,-12,13,0,-113,-86,-146,-160,-160
13,0,0,0,0,0,0,0,-120,-80,-146,-160,-160
14,-6,-2,4,5,-5,0,0,-106,-80,-140,-160,-153
15,-13,-6,6,10,-10,0,13,-106,-80,-133,-160,-146
16,-4,-4,0,4,-2,-2,20,-100,-80,-140,-160,-146
17,-13,-6,6,10,-10,0,13,-93,-80,-146,-160,-146
18,-6,-6,0,6,-4,-4,6,-93,-80,-140,-160,-146
19,-6,-6,0,6,-4,-4,0,-93,-80,-133,-160,-146
20,-9,-6,2,8,-6,-2,13,-106,-80,-133,-160,-146
21,-13,-6,6,10,-10,0,13,-106,-80,-120,-146,-133
22,-22,-9,13,16,-18,1,13,-100,-100,-120,-140,-133
23,-20,-6,13,13,-17,2,0,-106,-93,-120,-133,-133
24,-17,-9,8,13,-13,-1,0,-106,-100,-126,-140,-140
25,-6,-13,-6,10,0,-10,13,-106,-106,-133,-160,-146
26,-10,-10,0,10,-5,-5,6,-86,-86,-126,-146,-146
27,-6,-6,0,6,-4,-4,13,-80,-80,-120,-146,-146
28,0,-2,-2,1,1,-2,20,-66,-60,-106,-146,-146
29,-6,6,13,0,-10,9,40,-53,-53,-93,-133,-146
30,-9,9,18,0,-14,13,53,-53,-13,-80,-133,-160
31,-26,26,53,0,-40,40,66,-40,13,-53,-120,-160
32,-42,40,82,1,-62,61,80,-26,73,-6,-100,-160
33,-60,53,113,4,-86,82,106,-13,120,26,-80,-160
34,-70,73,144,-1,-108,108,133,-6,173,53,-73,-160
35,-80,86,166,-2,-124,126,146,0,200,93,-53,-160
36,-86,100,186,-6,-137,142,153,26,240,120,-40,-160
37,-93,113,206,-9,-150,160,160,53,280,160,0,-146
38,-86,129,216,-21,-152,172,180,86,313,200,26,-133
39,-86,140,226,-26,-157,182,186,120,333,226,53,-106
40,-77,160,237,-41,-157,198,186,153,360,273,93,-86
41,-53,180,233,-62,-144,206,173,173,373,306,120,-53
42,-30,190,221,-80,-126,205,173,200,393,340,173,-26
43,-20,213,233,-96,-126,222,173,240,426,386,226,13
44,-16,226,242,-105,-129,234,180,293,460,453,286,46
45,0,240,240,-120,-120,240,173,360,506,533,360,93
46,26,260,233,-142,-104,246,166,433,540,593,433,140
47,60,266,206,-162,-73,236,160,520,573,680,506,213
48,80,260,180,-169,-50,220,160,580,580,713,560,260
49,100,253,153,-176,-26,202,146,640,573,760,626,320
50,144,244,100,-193,21,172,106,693,566,786,700,400
51,186,240,53,-213,66,146,53,693,520,800,773,480
52,233,269,36,-250,98,152,-13,660,480,813,826,573
53,273,300,26,-286,122,162,-66,613,426,813,880,653
54,306,322,16,-314,145,169,-113,546,346,806,946,753
55,340,373,33,-356,153,202,-173,480,293,800,1013,866
56,373,416,42,-394,165,229,-246,373,226,793,1073,946
57,393,466,73,-429,160,269,-320,226,146,746,1120,1053
58,413,513,100,-462,156,306,-373,73,80,706,1166,1126
59,433,560,126,-496,153,342,-440,-80,13,666,1200,1200
60,440,606,166,-522,136,386,-486,-226,-46,640,1240,1266
61,453,640,186,-546,133,413,-560,-346,-133,626,1293,1346
62,482,686,204,-584,138,445,-633,-453,-246,593,1340,1433
63,506,706,200,-606,153,453,-706,-560,-360,546,1373,1506
64,537,689,152,-613,192,420,-746,-640,-446,493,1360,1560
65,560,653,93,-606,233,373,-786,-733,-560,373,1293,1533
66,573,560,-13,-566,293,273,-813,-840,-686,220,1120,1420
67,546,426,-120,-486,333,153,-800,-973,-840,-13,866,1266
68,513,300,-213,-406,362,42,-766,-1053,-940,-186,613,1100
69,493,166,-326,-329,409,-80,-746,-1146,-1053,-373,400,920
70,469,80,-389,-274,429,-154,-746,-1220,-1120,-480,240,800
71,440,0,-440,-220,440,-220,-746,-1306,-1240,-626,66,666
72,380,-64,-444,-157,412,-254,-753,-1386,-1300,-746,-93,493
73,320,-106,-426,-106,373,-266,-733,-1480,-1373,-853,-253,346
74,273,-157,-430,-57,352,-294,-740,-1553,-1413,-940,-373,220
75,233,-193,-426,-20,329,-310,-720,-1613,-1466,-1040,-493,93
76,186,-224,-410,18,298,-317,-700,-1653,-1493,-1126,-633,-53
77,126,-273,-400,73,262,-337,-680,-1733,-1533,-1253,-813,-240
78,73,-333,-406,130,240,-370,-653,-1793,-1586,-1386,-973,-366
79,33,-386,-420,177,226,-404,-626,-1826,-1613,-1466,-1066,-493
80,9,-413,-422,202,216,-418,-620,-1826,-1633,-1506,-1106,-553
81,-13,-440,-426,226,206,-433,-586,-1786,-1626,-1520,-1120,-573
82,-26,-473,-446,250,209,-460,-566,-1740,-1613,-1513,-1140,-600
83,-40,-500,-460,270,209,-480,-533,-1680,-1586,-1520,-1160,-640
84,-56,-529,-473,293,208,-501,-506,-1600,-1533,-1513,-1166,-660
85,-86,-540,-453,313,182,-497,-466,-1520,-1480,-1480,-1160,-693
86,-106,-556,-449,332,170,-502,-433,-1440,-1426,-1440,-1146,-680
87,-126,-566,-440,346,156,-504,-386,-1373,-1386,-1413,-1133,-693
88,-166,-569,-402,368,117,-486,-353,-1306,-1326,-1373,-1106,-713
89,-186,-573,-386,380,100,-480,-320,-1253,-1266,-1333,-1080,-720
90,-193,-566,-373,380,89,-470,-313,-1186,-1226,-1273,-1046,-693
91,-193,-560,-366,377,86,-464,-306,-1133,-1173,-1213,-986,-666
92,-173,-520,-346,346,86,-433,-293,-1060,-1120,-1146,-946,-626
93,-160,-486,-326,324,82,-406,-293,-986,-1066,-1080,-880,-586
94,-160,-462,-302,312,70,-382,-286,-926,-1006,-1020,-833,-540
95,-160,-440,-280,300,60,-360,-266,-866,-946,-960,-773,-520
96,-137,-436,-298,286,80,-368,-253,-826,-933,-920,-746,-506
97,-120,-433,-313,277,96,-373,-240,-773,-906,-893,-720,-493
98,-117,-424,-306,270,94,-365,-246,-733,-853,-853,-693,-466
99,-106,-413,-306,260,100,-360,-240,-693,-826,-800,-666,-453
100,-96,-396,-300,246,101,-348,-253,-646,-786,-760,-626,-426
101,-100,-380,-280,240,89,-330,-253,-600,-733,-706,-586,-413
102,-106,-366,-260,237,76,-313,-213,-546,-666,-660,-540,-386
103,-100,-360,-260,230,80,-310,-186,-506,-626,-613,-506,-373
104,-96,-346,-250,221,77,-298,-173,-480,-600,-600,-493,-360
105,-100,-340,-240,220,69,-290,-146,-440,-560,-560,-466,-346
106,-89,-322,-233,206,72,-278,-133,-393,-533,-533,-446,-340
107,-80,-300,-220,190,69,-260,-120,-360,-493,-506,-426,-333
108,-77,-266,-189,172,56,-228,-93,-340,-460,-466,-393,-306
109,-66,-246,-180,157,56,-213,-80,-306,-426,-440,-373,-293
110,-56,-220,-164,138,53,-192,-66,-266,-366,-393,-346,-266
111,-46,-200,-153,124,53,-177,-26,-226,-333,-360,-320,-253
112,-49,-173,-124,112,37,-149,-6,-180,-306,-326,-286,-233
113,-46,-160,-113,104,33,-137,13,-146,-266,-280,-253,-213
114,-42,-140,-97,92,26,-118,33,-106,-246,-253,-240,-200
115,-40,-120,-80,80,20,-100,53,-80,-213,-226,-213,-186
116,-10,-109,-98,60,44,-104,60,-60,-206,-206,-200,-173
117,6,-100,-106,46,56,-104,80,-53,-186,-186,-186,-160
118,6,-80,-86,37,46,-84,66,-26,-160,-180,-160,-160
119,20,-66,-86,24,53,-77,66,-13,-133,-160,-146,-146
120,13,-60,-73,24,42,-66,73,-6,-120,-140,-140,-133
121,13,-46,-60,17,36,-53,80,0,-93,-120,-133,-133
122,13,-33,-46,10,29,-40,80,6,-73,-106,-113,-120
123,6,-20,-26,6,16,-24,80,13,-53,-93,-106,-120
124,10,-6,-17,-1,13,-12,86,6,-40,-73,-93,-106
125,6,6,0,-6,2,2,93,13,-26,-53,-80,-106
126,6,20,13,-13,-4,16,80,13,-13,-53,-80,-93
127,6,26,20,-16,-6,22,80,13,-13,-40,-66,-93
128,6,33,26,-20,-10,29,73,20,0,-40,-66,-80
129,13,40,26,-26,-6,33,66,26,0,-26,-53,-80
130,10,49,38,-29,-14,44,66,26,13,-26,-53,-80
131,13,60,46,-36,-17,53,53,26,13,-13,-53,-66
132,13,66,53,-40,-20,60,46,60,6,-20,-33,-60
133,13,73,60,-42,-24,66,40,80,13,-13,-26,-53
134,10,73,62,-41,-26,68,46,86,6,-6,-26,-40
135,6,80,73,-42,-33,76,40,106,13,0,-26,-53
136,16,82,66,-49,-25,74,40,93,13,-6,-26,-33
137,20,80,60,-49,-20,69,40,93,13,-13,-26,-40
138,13,80,66,-46,-26,73,46,93,20,0,-33,-33
139,20,86,66,-53,-24,76,53,93,40,0,-26,-53
140,20,89,69,-54,-25,78,46,86,40,0,-26,-33
141,20,100,80,-60,-30,89,53,93,40,13,-26,-40
142,20,100,80,-60,-30,89,60,93,53,13,-26,-26
143,20,100,80,-60,-30,89,66,93,66,13,-26,-26
144,20,106,86,-62,-33,96,53,113,53,26,-13,-20
145,20,113,93,-66,-37,102,66,106,66,26,-13,-13
146,17,116,98,-66,-41,106,53,106,66,40,-13,-20
147,13,120,106,-66,-46,113,53,120,66,53,0,-13
148,6,124,117,-65,-56,120,53,100,80,46,0,-6
149,0,120,120,-60,-60,120,53,106,80,53,0,0
150,9,122,113,-65,-52,117,53,106,86,53,6,0
151,6,126,120,-66,-57,122,53,106,93,53,13,0
152,9,126,117,-68,-54,121,40,106,86,53,6,-6
153,13,126,113,-69,-50,120,40,106,80,66,0,0
154,20,124,104,-72,-42,113,46,106,80,66,13,0
155,20,126,106,-73,-44,116,40,106,80,66,13,0
156,20,120,100,-69,-40,109,46,113,100,66,13,0
157,26,120,93,-73,-33,106,53,106,93,66,13,0
158,24,120,96,-72,-36,108,46,113,86,66,13,0
159,20,120,100,-69,-40,109,40,120,93,66,13,0
160,29,120,90,-74,-30,105,53,120,93,73,26,0
161,26,120,93,-73,-33,106,53,106,93,66,26,0
162,17,113,96,-65,-40,104,53,126,100,66,26,-13
163,13,113,100,-62,-44,106,53,133,106,66,40,-13
164,6,120,113,-62,-53,116,53,133,120,80,46,-6
165,6,120,113,-62,-53,116,53,133,120,80,53,0
166,10,116,105,-62,-48,110,60,146,120,86,46,-6
167,0,120,120,-60,-60,120,66,160,120,93,53,0
168,4,126,122,-65,-60,124,46,160,120,86,53,-6
169,6,126,120,-66,-57,122,53,160,120,93,53,-13
170,0,133,133,-66,-66,133,53,153,120,93,53,0
171,0,126,126,-62,-64,126,53,146,120,93,66,0
172,6,140,133,-73,-64,136,60,160,120,100,73,6
173,6,146,140,-76,-66,142,53,160,120,106,80,13
174,9,142,133,-76,-62,137,53,153,120,100,73,13
175,13,146,133,-80,-60,140,53,160,120,106,80,13
176,10,140,129,-74,-60,134,46,153,133,106,80,13
177,6,133,126,-69,-60,129,40,146,133,106,80,13
178,16,136,120,-76,-52,128,40,166,140,113,86,6
179,13,140,126,-76,-57,133,40,173,146,120,93,13
180,13,136,122,-74,-54,129,33,173,133,120,86,13
181,13,140,126,-76,-57,133,26,186,133,120,80,13
182,10,133,122,-72,-56,128,46,200,146,133,100,20
183,6,133,126,-69,-60,129,53,213,146,133,106,40
184,13,140,126,-76,-57,133,53,213,146,146,100,40
185,13,140,126,-76,-57,133,53,213,146,146,106,40
186,13,146,133,-80,-60,140,53,200,146,140,106,33
187,20,146,126,-82,-53,136,53,200,160,133,106,40
188,13,146,133,-80,-60,140,53,193,160,146,106,40
189,13,146,133,-80,-60,140,53,186,160,146,106,40
190,13,140,126,-76,-57,133,53,186,146,133,106,46
191,20,140,120,-80,-50,129,53,186,160,133,106,53
192,10,144,133,-77,-61,138,60,213,166,133,106,60
193,6,140,133,-73,-64,136,66,226,173,146,120,66
194,13,149,136,-81,-61,142,73,233,173,146,126,60
195,6,146,140,-76,-66,142,53,240,173,146,133,66
196,16,149,133,-82,-58,141,66,233,173,160,133,73
197,20,146,126,-82,-53,136,53,226,173,160,133,66
198,22,146,124,-84,-50,134,53,246,173,160,133,66
199,26,146,120,-86,-46,133,53,253,173,160,133,66
200,30,144,113,-86,-41,128,40,240,186,166,140,73
201,26,140,113,-82,-44,126,40,240,173,173,133,66
202,24,137,113,-80,-45,125,40,240,186,166,133,73
203,20,140,120,-80,-50,129,40,253,186,160,133,80
204,26,140,113,-82,-44,126,33,260,186,173,133,73
205,26,140,113,-82,-44,126,40,266,186,173,146,80
206,22,146,124,-84,-50,134,40,273,200,173,153,86
207,26,146,120,-86,-46,133,40,280,200,186,160,93
208,33,149,116,-90,-41,132,46,266,200,193,153,86
209,40,153,113,-96,-37,133,66,253,200,200,146,80
210,40,160,120,-100,-40,140,86,266,206,200,153,86
211,40,166,126,-102,-44,146,93,266,226,200,160,93
212,40,164,124,-101,-42,144,93,260,226,213,173,86
213,40,166,126,-102,-44,146,106,253,226,213,173,93
214,26,160,133,-93,-53,146,86,273,226,213,173,93
215,33,160,126,-96,-46,142,80,280,226,213,173,93
216,33,162,129,-97,-48,145,93,286,240,213,173,106
217,40,160,120,-100,-40,140,93,293,240,213,173,106
218,40,160,120,-100,-40,140,93,313,240,233,186,106
219,40,160,120,-100,-40,140,93,320,240,240,186,106
220,44,157,113,-100,-34,134,100,320,253,240,186,106
221,40,153,113,-96,-37,133,106,320,253,240,186,106
222,46,157,110,-101,-32,133,106,333,253,246,193,120
223,46,153,106,-100,-30,129,106,333,266,266,200,120
224,44,150,106,-97,-32,128,106,340,246,246,200,120
225,40,146,106,-93,-33,126,106,346,253,240,200,120
226,46,150,104,-98,-29,126,106,333,253,246,200,120
227,46,146,100,-96,-26,122,120,320,253,240,200,120
228,46,146,100,-96,-26,122,106,326,260,246,200,120
229,53,153,100,-102,-24,126,106,320,266,253,213,120
230,56,157,101,-106,-22,129,120,333,266,260,206,133
231,53,153,100,-102,-24,126,120,333,253,253,213,133
232,44,150,106,-97,-32,128,106,340,273,260,220,133
233,40,146,106,-93,-33,126,106,360,280,266,226,133
234,44,150,106,-97,-32,128,120,360,280,273,220,146
235,33,146,113,-89,-40,129,120,360,280,266,226,146
236,42,156,113,-98,-36,134,106,353,286,273,233,153
237,40,166,126,-102,-44,146,106,360,293,280,240,160
238,33,164,130,-98,-49,146,113,360,306,293,240,160
239,26,160,133,-93,-53,146,106,360,306,293,240,160
240,46,173,126,-109,-40,149,106,373,306,293,260,180
241,46,180,133,-113,-44,156,106,386,306,293,266,186
242,53,189,136,-121,-41,162,100,393,306,293,260,180
243,53,200,146,-126,-46,173,93,400,320,306,266,186
244,53,200,146,-126,-46,173,93,406,320,313,273,193
245,53,200,146,-126,-46,173,93,400,320,320,280,200
246,46,202,156,-124,-54,178,93,400,326,320,280,193
247,46,206,160,-126,-57,182,93,400,346,320,293,200
248,53,210,157,-132,-52,184,80,386,346,333,286,200
249,60,206,146,-133,-44,176,80,386,346,333,280,200
250,60,213,153,-136,-46,182,80,400,346,326,293,213
251,66,213,146,-140,-40,180,80,413,346,333,293,213
252,57,213,156,-134,-49,184,80,413,360,340,293,213
253,53,213,160,-133,-53,186,80,413,360,346,306,213
254,66,220,153,-142,-44,186,80,433,353,346,306,213
255,60,226,166,-142,-53,196,80,440,360,360,306,226
256,73,236,162,-154,-45,198,86,433,360,360,320,226
257,80,240,160,-160,-40,200,93,440,373,360,320,240
258,77,246,169,-161,-46,208,86,446,373,366,313,240
259,80,253,173,-166,-46,213,80,453,373,360,320,240
260,80,250,170,-165,-45,210,80,460,366,360,320,233
261,86,246,160,-166,-37,202,80,453,360,360,320,226
262,84,244,160,-164,-38,201,86,460,360,360,326,240
263,86,246,160,-166,-37,202,93,480,360,373,346,240
264,82,246,164,-164,-41,205,100,500,373,380,346,253
265,86,246,160,-166,-37,202,106,506,373,386,346,253
266,90,246,156,-168,-33,201,106,500,380,386,346,260
267,93,253,160,-173,-33,206,106,506,386,400,360,280
268,86,253,166,-169,-40,209,106,500,386,400,360,280
269,93,253,160,-173,-33,206,106,493,400,400,373,280
270,97,262,165,-180,-34,213,113,513,400,406,373,293
271,93,266,173,-180,-40,220,120,520,400,400,373,293
272,93,269,176,-181,-41,222,106,533,393,400,366,293
273,93,273,180,-182,-44,226,106,533,386,400,373,293
274,93,270,177,-181,-42,224,106,540,393,413,380,306
275,100,273,173,-186,-37,222,106,560,400,413,386,293
276,109,282,173,-196,-32,228,100,560,400,420,393,306
277,113,280,166,-196,-26,222,93,573,413,426,400,306
278,113,277,164,-194,-25,220,100,586,413,440,406,306
279,113,280,166,-196,-26,222,106,586,413,440,400,306
280,106,286,180,-196,-37,233,106,586,413,440,400,320
281,106,286,180,-196,-37,233,106,586,413,440,400,320
282,109,282,173,-196,-32,228,100,580,413,440,400,320
283,113,293,180,-202,-33,236,93,586,413,440,413,320
284,104,286,182,-194,-40,234,106,593,413,440,413,333
285,106,286,180,-196,-37,233,106,600,413,440,413,333
286,109,293,184,-201,-37,238,113,600,406,440,420,340
287,113,293,180,-202,-33,236,106,600,400,440,426,346
288,117,290,173,-204,-28,232,100,606,406,440,420,346
289,113,293,180,-202,-33,236,106,613,413,440,426,346
290,122,290,168,-206,-22,229,86,620,406,453,426,360
291,126,300,173,-213,-24,236,80,613,400,453,426,360
292,124,293,169,-208,-22,230,93,613,400,453,426,340
293,120,286,166,-202,-24,226,93,613,400,453,426,346
294,120,293,173,-206,-26,233,86,606,400,440,433,353
295,120,293,173,-206,-26,233,93,600,400,453,426,360
296,122,293,170,-208,-24,232,93,600,406,446,440,360
297,126,300,173,-213,-24,236,93,600,400,453,440,360
298,120,297,177,-208,-29,237,86,606,400,453,433,360
299,120,300,180,-209,-30,240,80,600,400,453,426,360
300,126,296,169,-210,-21,232,80,600,400,453,426,353
301,126,300,173,-213,-24,236,80,600,400,453,426,346
302,129,302,173,-216,-22,237,73,593,400,453,433,353
303,133,313,180,-222,-24,246,66,600,400,453,440,360
304,130,309,178,-220,-24,244,66,600,393,446,426,353
305,126,313,186,-220,-30,249,80,613,400,440,426,346
306,130,313,182,-221,-26,248,80,606,393,446,420,346
307,126,313,186,-220,-30,249,80,613,386,440,413,346
308,126,304,177,-214,-25,240,66,600,386,440,420,346
309,126,306,180,-216,-26,242,66,613,386,440,426,333
310,129,309,180,-218,-25,244,73,593,380,433,406,353
311,133,306,173,-220,-20,240,66,586,386,440,400,346
312,120,300,180,-209,-30,240,66,586,393,446,400,340
313,113,300,186,-206,-37,242,66,573,386,440,400,333
314,126,302,176,-214,-25,238,60,573,380,433,406,340
315,133,313,180,-222,-24,246,53,560,373,426,400,346
316,126,309,182,-217,-28,245,73,560,373,413,406,353
317,126,306,180,-216,-26,242,66,546,360,413,400,346
318,126,290,164,-208,-18,226,66,533,353,400,400,333
319,120,280,160,-200,-20,220,80,533,333,400,386,333
320,117,273,156,-194,-20,214,60,520,333,386,380,333
321,113,273,160,-193,-24,216,53,506,333,386,360,320
322,113,276,162,-194,-25,218,60,493,333,366,360,306
323,113,273,160,-193,-24,216,66,493,320,360,346,306
324,106,270,164,-188,-29,217,66,480,320,346,346,286
325,106,260,153,-182,-24,206,66,466,306,346,333,280
326,97,262,165,-180,-34,213,66,446,306,333,333,280
327,86,260,173,-173,-44,216,66,440,306,333,320,266
328,86,256,169,-170,-41,212,60,420,293,320,306,253
329,86,260,173,-173,-44,216,66,400,293,306,306,240
330,82,253,170,-168,-44,212,60,386,280,306,293,240
331,80,246,166,-162,-44,206,53,373,280,293,280,226
332,77,237,160,-157,-41,198,66,353,266,293,266,213
333,66,233,166,-149,-50,200,66,346,266,280,266,213
334,66,229,162,-148,-48,196,60,346,260,266,260,213
335,66,226,160,-146,-46,193,80,346,266,266,253,213
336,53,222,169,-137,-58,196,86,340,246,253,240,193
337,53,220,166,-136,-57,193,93,333,240,253,240,186
338,44,197,153,-120,-54,174,80,313,233,240,220,166
339,26,186,160,-106,-66,173,66,293,213,226,200,160
340,29,182,153,-105,-62,168,66,300,220,213,206,153
341,26,180,153,-102,-64,166,66,293,213,213,200,160
342,20,180,160,-100,-70,169,66,280,213,220,200,146
343,20,173,153,-96,-66,162,66,280,213,213,186,146
344,13,166,153,-89,-70,160,66,260,200,193,180,133
345,13,160,146,-86,-66,153,66,240,200,186,173,133
346,9,156,146,-82,-69,150,53,246,180,173,160,120
347,13,153,140,-82,-64,146,66,240,173,173,146,120
348,16,144,128,-80,-56,136,60,226,166,153,146,120
349,20,133,113,-76,-46,122,53,226,146,133,133,106
350,16,124,108,-69,-46,116,53,213,133,133,120,86
351,20,120,100,-69,-40,109,53,213,133,120,120,80
352,20,106,86,-62,-33,96,33,200,120,120,100,66
353,20,106,86,-62,-33,96,40,186,120,120,93,66
354,17,109,92,-62,-37,100,33,186,120,106,93,73
355,13,106,93,-60,-40,100,40,173,120,106,80,66
356,16,109,93,-62,-38,101,46,173,120,93,80,46
357,13,106,93,-60,-40,100,40,160,106,93,66,40
358,10,93,82,-52,-36,88,40,166,100,73,53,40
359,0,80,80,-40,-40,80,40,160,93,66,53,26
360,-2,77,80,-37,-41,78,40,166,86,73,53,26
361,-6,73,80,-33,-44,76,40,160,93,66,40,13
362,-13,76,89,-30,-52,82,33,153,100,66,46,13
363,-13,80,93,-33,-53,86,40,146,93,53,53,13
364,-13,70,84,-28,-49,77,40,133,93,53,40,6
365,-13,66,80,-26,-46,73,40,133,93,53,40,13
366,-10,66,77,-28,-44,72,40,120,73,40,26,6
367,-13,53,66,-20,-40,60,40,120,66,40,26,0
368,-20,46,66,-13,-44,56,40,100,66,40,26,-13
369,-26,40,66,-6,-46,53,40,93,66,40,26,-13
370,-26,33,60,-2,-44,46,46,93,60,26,13,-6
371,-33,20,53,6,-44,36,53,80,53,26,13,-13
372,-42,13,56,14,-49,34,53,80,53,26,13,-13
373,-40,13,53,13,-46,33,53,66,53,13,13,-13
374,-40,10,50,14,-45,30,46,73,46,13,0,-6
375,-46,6,53,20,-50,29,40,80,53,13,0,-13
376,-42,9,52,17,-48,30,40,73,53,20,0,-13
377,-53,6,60,24,-57,33,40,80,53,13,0,-13
378,-46,-2,44,25,-45,20,40,73,53,13,0,-20
379,-46,-6,40,26,-44,16,40,66,53,13,0,-26
380,-56,-6,49,32,-53,21,40,80,53,6,-20,-26
381,-60,-6,53,33,-57,22,40,66,40,0,-13,-26
382,-44,-6,37,25,-41,14,26,53,40,6,-26,-26
383,-33,-6,26,20,-30,9,40,40,40,0,-26,-26
384,-33,-6,26,20,-30,9,40,46,40,0,-20,-26
385,-40,-6,33,24,-37,13,40,40,40,0,-13,-40
386,-42,-13,29,28,-36,8,40,40,26,-6,-26,-40
387,-40,-6,33,24,-37,13,40,40,26,-13,-26,-40
388,-40,-22,17,32,-29,-2,40,40,33,-6,-20,-40
389,-46,-26,20,37,-33,-4,40,40,40,0,-13,-40
390,-42,-16,26,29,-34,5,40,33,33,0,-20,-40
391,-46,-13,33,30,-40,9,40,40,26,-13,-26,-40
392,-44,-13,30,29,-37,8,33,40,46,-6,-26,-46
393,-40,-20,20,30,-30,0,26,40,53,-13,-26,-53
394,-40,-17,22,29,-32,2,33,40,40,-6,-26,-53
395,-46,-20,26,33,-37,2,26,40,40,-13,-26,-53
396,-37,-26,10,32,-24,-8,40,26,40,-13,-26,-46
397,-40,-26,13,33,-26,-6,40,26,40,-13,-26,-53
398,-46,-24,22,36,-34,-1,40,26,33,-13,-26,-40
399,-46,-20,26,33,-37,2,26,26,40,-13,-26,-53
400,-53,-20,33,37,-44,6,20,33,46,-13,-20,-33
401,-53,-26,26,40,-40,0,13,26,40,-13,-26,-40
402,-49,-20,29,34,-40,4,6,20,33,-13,-33,-46
403,-53,-20,33,37,-44,6,13,26,26,-13,-40,-53
404,-40,-17,22,29,-32,2,20,13,26,-26,-40,-60
405,-40,-20,20,30,-30,0,26,26,26,-26,-40,-66
406,-46,-26,20,37,-33,-4,40,20,20,-33,-46,-66
407,-46,-26,20,37,-33,-4,53,13,13,-40,-53,-66
408,-33,-10,22,22,-28,5,46,13,6,-46,-53,-66
409,-40,-6,33,24,-37,13,53,13,0,-40,-53,-66
410,-33,-10,22,22,-28,5,40,13,13,-46,-46,-60
411,-40,0,40,20,-40,20,40,0,13,-40,-40,-53
412,-36,-2,33,20,-34,14,33,-6,13,-40,-53,-66
413,-46,-6,40,26,-44,16,26,-13,13,-53,-53,-66
414,-46,-9,37,28,-42,13,33,-13,6,-46,-53,-73
415,-46,-13,33,30,-40,9,40,-13,0,-53,-53,-80
416,-40,-10,29,25,-34,9,40,-13,6,-53,-60,-80
417,-33,0,33,17,-33,16,40,-13,0,-53,-53,-80
418,-33,0,33,17,-33,16,40,-6,0,-46,-66,-86
419,-26,0,26,13,-26,13,40,-13,0,-40,-53,-80
420,-26,-2,24,14,-25,10,40,-20,0,-53,-66,-86
421,-33,-6,26,20,-30,9,40,-26,0,-53,-66,-80
422,-29,0,29,14,-29,14,46,-33,13,-53,-73,-86
423,-33,0,33,17,-33,16,53,-40,13,-53,-80,-93
424,-30,0,30,16,-30,14,40,-46,13,-53,-80,-86
425,-33,0,33,17,-33,16,40,-53,13,-53,-80,-80
426,-33,6,40,13,-37,22,33,-53,6,-53,-73,-80
427,-33,13,46,10,-40,29,40,-53,0,-53,-66,-80
428,-29,16,45,6,-37,30,40,-53,13,-53,-73,-73
429,-26,20,46,4,-37,33,40,-66,13,-53,-80,-66
430,-30,22,53,4,-42,37,33,-60,13,-60,-86,-66
431,-26,20,46,4,-37,33,26,-53,0,-66,-93,-66
432,-33,10,44,12,-38,26,26,-46,-6,-66,-86,-66
433,-33,6,40,13,-37,22,26,-40,0,-66,-93,-66
434,-29,10,40,9,-34,25,26,-40,-6,-66,-80,-66
435,-40,13,53,13,-46,33,26,-40,0,-66,-80,-66
436,-37,6,44,16,-41,25,20,-40,6,-66,-93,-66
437,-33,13,46,10,-40,29,13,-40,0,-66,-93,-66
438,-30,10,41,10,-36,25,13,-46,0,-66,-86,-66
439,-26,6,33,10,-30,20,13,-53,0,-66,-93,-66
440,-42,4,46,20,-45,25,20,-46,0,-73,-100,-66
441,-40,0,40,20,-40,20,26,-40,0,-66,-106,-66
442,-30,13,44,9,-37,28,26,-40,0,-80,-100,-66
443,-33,20,53,6,-44,36,26,-40,0,-80,-93,-66
444,-29,20,49,5,-40,34,20,-40,-6,-80,-93,-73
445,-33,20,53,6,-44,36,26,-40,-13,-80,-93,-80
446,-29,22,52,4,-41,37,20,-33,-13,-73,-93,-73
447,-33,20,53,6,-44,36,26,-40,-13,-66,-93,-66
448,-26,20,46,4,-37,33,13,-33,-6,-66,-93,-73
449,-26,20,46,4,-37,33,13,-40,0,-66,-93,-80
450,-20,17,37,1,-29,26,20,-40,0,-66,-93,-73
451,-26,6,33,10,-30,20,13,-40,0,-66,-93,-93
452,-26,6,33,10,-30,20,20,-40,0,-60,-93,-80
453,-33,6,40,13,-37,22,13,-40,0,-53,-93,-80
454,-40,6,46,17,-44,26,20,-40,0,-66,-86,-73
455,-53,0,53,26,-53,26,26,-40,0,-53,-80,-80
456,-37,6,44,16,-41,25,20,-33,6,-53,-80,-73
457,-33,6,40,13,-37,22,13,-40,0,-53,-80,-66
458,-30,0,30,16,-30,14,13,-33,13,-53,-80,-66
459,-26,6,33,10,-30,20,26,-40,13,-53,-80,-66
460,-33,0,33,17,-33,16,26,-46,13,-53,-80,-66
461,-40,0,40,20,-40,20,26,-40,13,-53,-80,-66
462,-46,-6,40,26,-44,16,26,-46,20,-53,-73,-66
463,-60,-13,46,37,-53,16,26,-40,13,-53,-66,-66
464,-50,-10,40,30,-45,14,26,-33,6,-53,-73,-73
465,-40,-6,33,24,-37,13,40,-40,13,-53,-80,-80
466,-40,-13,26,26,-33,6,33,-33,13,-53,-86,-66
467,-40,-13,26,26,-33,6,40,-26,13,-40,-80,-66
468,-37,-10,26,24,-32,8,26,-40,13,-53,-80,-66
469,-33,-13,20,24,-26,2,26,-40,13,-53,-80,-66
470,-40,-6,33,24,-37,13,40,-33,13,-40,-73,-66
471,-40,-13,26,26,-33,6,40,-26,13,-40,-66,-66
472,-36,-20,16,28,-26,-2,46,-20,6,-53,-86,-66
473,-33,-20,13,26,-24,-4,53,-13,0,-40,-80,-66
474,-40,-20,20,30,-30,0,53,-20,0,-40,-80,-73
475,-40,-20,20,30,-30,0,53,-26,0,-53,-93,-80
476,-42,-22,20,33,-32,-1,46,-33,-13,-60,-100,-80
477,-46,-26,20,37,-33,-4,40,-26,-13,-53,-93,-80
478,-46,-6,40,26,-44,16,40,-20,0,-53,-86,-80
479,-40,-6,33,24,-37,13,40,-13,-13,-53,-93,-80
480,-33,-6,26,20,-30,9,33,-13,-13,-53,-93,-80
481,-33,-6,26,20,-30,9,26,-13,-13,-53,-93,-80
482,-26,-6,20,17,-24,6,26,-13,-13,-53,-80,-73
483,-26,0,26,13,-26,13,26,-13,-13,-53,-80,-66
484,-24,-2,21,13,-22,9,20,-13,-13,-53,-73,-60
485,-20,-6,13,13,-17,2,13,-13,-13,-53,-80,-66
486,-17,0,17,9,-17,8,13,-6,-6,-46,-80,-60
487,-13,0,13,6,-13,6,13,0,0,-40,-80,-53
488,-22,2,25,10,-24,13,20,-6,0,-40,-80,-53
489,-33,6,40,13,-37,22,26,0,0,-40,-80,-53
490,-24,6,30,9,-28,18,26,-6,0,-40,-80,-60
491,-13,0,13,6,-13,6,26,0,0,-40,-80,-66
492,-13,-6,6,10,-10,0,20,-6,0,-40,-86,-73
493,-13,0,13,6,-13,6,13,-13,0,-40,-93,-66
494,-13,0,13,6,-13,6,6,-13,0,-40,-73,-66
495,-13,0,13,6,-13,6,13,-13,0,-40,-66,-66
496,-10,6,17,2,-14,12,26,0,6,-20,-80,-66
497,-13,6,20,4,-17,13,26,0,13,-26,-80,-66
498,-4,13,17,-4,-10,14,26,-6,0,-26,-80,-73
499,0,13,13,-6,-6,13,26,0,0,-26,-80,-80
500,6,13,6,-9,0,9,33,0,0,-33,-86,-80
501,6,13,6,-9,0,9,40,0,13,-26,-80,-80
502,0,16,16,-8,-8,16,40,-6,6,-33,-86,-80
503,0,20,20,-9,-10,20,40,-13,0,-40,-93,-80
504,2,20,17,-10,-8,18,40,-13,0,-33,-86,-73
505,6,20,13,-13,-4,16,40,-13,0,-26,-80,-66
506,-9,22,32,-6,-21,26,40,-13,-6,-40,-86,-73
507,-13,26,40,-6,-26,33,40,-13,0,-26,-80,-66
508,-13,24,37,-5,-25,30,33,-13,6,-26,-66,-66
509,-6,20,26,-6,-17,22,40,-13,13,-26,-66,-66
510,-6,17,24,-5,-16,20,26,-6,6,-26,-60,-53
511,-6,20,26,-6,-17,22,26,0,0,-26,-53,-53
512,-16,16,32,0,-24,24,20,0,6,-26,-53,-53
513,-13,13,26,0,-20,20,13,0,0,-26,-53,-53
514,-20,13,33,4,-26,22,26,6,0,-26,-60,-60
515,-33,6,40,13,-37,22,26,0,0,-26,-66,-66
516,-29,13,42,8,-36,28,20,0,0,-26,-60,-66
517,-26,13,40,6,-33,26,13,0,0,-26,-53,-66
518,-30,17,48,6,-40,32,20,13,0,-26,-53,-60
519,-20,13,33,4,-26,22,26,26,-13,-26,-53,-53
520,-24,6,30,9,-28,18,13,13,0,-13,-66,-60
521,-13,6,20,4,-17,13,26,13,0,-26,-66,-66
522,-17,6,24,5,-21,14,26,6,-6,-20,-66,-60
523,-13,6,20,4,-17,13,26,0,-13,-26,-66,-66
524,-13,6,20,4,-17,13,33,0,-6,-33,-73,-60
525,-13,6,20,4,-17,13,40,0,0,-26,-66,-53
526,-16,6,22,5,-20,14,40,-6,0,-33,-73,-60
527,-20,6,26,6,-24,16,40,-13,0,-26,-66,-66
528,-17,9,26,4,-22,17,46,-6,0,-33,-66,-66
529,-20,20,40,0,-30,29,53,-13,0,-26,-66,-66
530,-20,13,33,4,-26,22,53,-6,-13,-20,-60,-60
531,-20,13,33,4,-26,22,40,-13,-13,-13,-66,-53
532,-26,13,40,6,-33,26,53,-13,-13,-13,-66,-53
533,-20,20,40,0,-30,29,53,-13,0,-13,-66,-53
534,-13,20,33,-2,-24,26,60,-6,-6,-20,-66,-53
535,-13,20,33,-2,-24,26,66,0,-13,-26,-66,-53
536,-13,20,33,-2,-24,26,66,-13,-13,-26,-66,-40
537,-13,13,26,0,-20,20,66,-13,-13,-26,-66,-40
538,-4,17,21,-6,-13,18,73,-13,-13,-26,-66,-33
539,-6,20,26,-6,-17,22,66,-13,-13,-26,-66,-40
540,-9,22,32,-6,-21,26,60,-20,-13,-26,-73,-53
541,-13,20,33,-2,-24,26,53,-26,-13,-26,-80,-53
542,-13,6,20,4,-17,13,53,-13,-13,-26,-73,-53
543,-13,6,20,4,-17,13,53,-13,-13,-26,-66,-53
544,-13,6,20,4,-17,13,53,-6,-13,-26,-66,-53
545,-13,6,20,4,-17,13,53,0,-13,-26,-66,-53
546,-16,9,25,4,-21,17,60,-13,-13,-26,-73,-53
547,-13,20,33,-2,-24,26,66,-13,-13,-26,-80,-53
548,-16,20,36,-1,-26,28,66,6,-13,-33,-66,-46
549,-20,20,40,0,-30,29,66,13,-13,-40,-66,-53
550,-13,20,33,-2,-24,26,60,0,-13,-40,-80,-53
551,-13,20,33,-2,-24,26,53,0,-13,-40,-80,-66
552,-17,22,40,-2,-29,30,66,-6,-6,-40,-80,-66
553,-20,20,40,0,-30,29,66,-13,0,-40,-80,-66
554,-13,20,33,-2,-24,26,60,-13,0,-40,-80,-66
555,-20,20,40,0,-30,29,53,-13,13,-40,-80,-66
556,-17,22,40,-2,-29,30,53,-13,0,-40,-80,-66
557,-13,26,40,-6,-26,33,53,-13,0,-40,-80,-66
558,-20,17,37,1,-29,26,53,-13,0,-33,-80,-66
559,-20,20,40,0,-30,29,53,-13,0,-26,-80,-66
560,-13,17,30,-1,-22,24,46,-13,0,-33,-80,-60
561,-13,13,26,0,-20,20,53,-13,0,-26,-80,-53
562,-13,16,29,-1,-21,22,53,-20,0,-33,-80,-53
563,-13,20,33,-2,-24,26,53,-26,0,-40,-80,-53
564,-9,13,22,-1,-16,17,40,-26,0,-40,-80,-53
565,-13,13,26,0,-20,20,40,-26,0,-40,-80,-53
566,-6,20,26,-6,-17,22,40,-20,0,-40,-73,-53
567,0,20,20,-9,-10,20,40,-13,0,-40,-66,-66
568,0,20,20,-9,-10,20,33,-33,0,-40,-80,-53
569,0,20,20,-9,-10,20,26,-26,0,-40,-80,-66
570,-2,24,26,-10,-14,25,33,-20,-6,-40,-73,-53
571,-6,20,26,-6,-17,22,26,-26,-13,-40,-80,-66
572,-2,22,25,-9,-14,24,26,-20,-6,-40,-73,-66
573,-6,26,33,-9,-20,29,26,-26,0,-40,-66,-66
574,-6,17,24,-5,-16,20,33,-20,0,-40,-80,-66
575,-6,20,26,-6,-17,22,40,-13,-13,-40,-80,-66
576,-6,20,26,-6,-17,22,40,-13,-13,-40,-86,-73
577,-6,20,26,-6,-17,22,40,-13,-13,-40,-93,-80
578,-10,20,30,-4,-21,25,40,-20,-13,-40,-86,-73
579,0,20,20,-9,-10,20,40,-26,-13,-40,-80,-66
580,-2,17,20,-6,-12,18,33,-26,-13,-40,-86,-73
581,-6,13,20,-2,-13,16,26,-26,-13,-40,-93,-80
582,-6,16,22,-4,-14,18,20,-26,-13,-46,-86,-80
583,-6,13,20,-2,-13,16,13,-26,-13,-40,-80,-80
584,-16,20,36,-1,-26,28,13,-13,-13,-46,-80,-80
585,-26,20,46,4,-37,33,0,-13,-13,-53,-93,-80
586,-24,17,41,4,-33,29,-13,-20,-13,-53,-100,-80
587,-26,13,40,6,-33,26,-13,-26,-13,-53,-93,-80
588,-26,22,49,2,-38,36,-6,-26,-13,-53,-106,-80
589,-26,26,53,0,-40,40,0,-26,-13,-53,-93,-80
590,-29,22,52,4,-41,37,6,-40,-20,-60,-93,-86
591,-40,20,60,10,-50,40,0,-40,-26,-66,-93,-93
592,-36,26,62,5,-49,44,6,-20,-26,-60,-106,-86
593,-33,26,60,4,-46,42,13,-26,-26,-53,-106,-80
594,-30,29,60,1,-45,44,13,-26,-20,-46,-100,-80
595,-26,33,60,-2,-44,46,13,-26,-13,-40,-93,-80
596,-10,37,48,-13,-29,42,26,-26,-20,-60,-100,-86
597,-13,33,46,-9,-30,40,26,-26,-26,-53,-106,-93
598,-22,30,53,-4,-38,41,40,-26,-20,-66,-106,-86
599,-33,33,66,0,-50,49,40,-26,-13,-66,-106,-93
600,-22,26,49,-1,-36,37,40,-40,-26,-66,-113,-93
601,-33,20,53,6,-44,36,40,-40,-26,-66,-120,-93
602,-40,17,57,12,-49,37,46,-40,-26,-66,-120,-100
603,-40,20,60,10,-50,40,53,-40,-26,-66,-120,-106
604,-36,22,58,6,-48,40,53,-33,-20,-66,-100,-106
605,-46,26,73,10,-60,49,53,-26,-13,-66,-93,-120
606,-42,24,66,9,-54,45,46,-26,-13,-73,-100,-106
607,-46,26,73,10,-60,49,53,-26,-13,-80,-106,-106
608,-44,24,68,10,-56,45,33,-26,-20,-80,-106,-106
609,-40,20,60,10,-50,40,26,-26,-26,-80,-106,-106
610,-26,22,49,2,-38,36,26,-26,-33,-86,-93,-113
611,-20,33,53,-6,-37,42,26,-26,-40,-93,-93,-120
612,-29,24,53,2,-41,38,26,-33,-46,-93,-113,-120
613,-26,26,53,0,-40,40,26,-40,-53,-93,-120,-120
614,-22,22,45,0,-34,33,26,-40,-53,-93,-120,-120
615,-26,20,46,4,-37,33,26,-40,-53,-93,-120,-120
616,-33,24,57,5,-45,40,33,-33,-46,-93,-113,-120
617,-33,26,60,4,-46,42,40,-40,-40,-93,-106,-120
618,-33,36,69,-1,-52,52,33,-26,-33,-86,-106,-120
619,-33,40,73,-2,-53,56,26,-26,-26,-80,-106,-120
620,-40,29,69,5,-54,49,33,-33,-26,-93,-106,-120
621,-40,40,80,0,-60,60,40,-40,-26,-93,-106,-120
622,-40,37,77,1,-58,57,40,-46,-26,-73,-106,-120
623,-40,33,73,4,-57,53,40,-53,-26,-80,-106,-120
624,-40,36,76,2,-58,56,40,-46,-26,-86,-113,-133
625,-40,40,80,0,-60,60,40,-53,-26,-93,-120,-120
626,-40,30,70,5,-56,50,40,-46,-26,-93,-113,-120
627,-40,26,66,6,-53,46,40,-40,-26,-93,-106,-120
628,-30,24,54,4,-42,38,33,-40,-26,-93,-106,-113
629,-26,26,53,0,-40,40,26,-40,-26,-93,-106,-120
630,-33,22,56,5,-45,38,26,-40,-26,-86,-106,-120
631,-33,20,53,6,-44,36,26,-40,-26,-80,-106,-120
632,-26,26,53,0,-40,40,26,-40,-26,-80,-100,-120
633,-26,26,53,0,-40,40,26,-40,-26,-80,-93,-106
634,-26,24,50,1,-38,37,33,-46,-26,-86,-100,-120
635,-26,20,46,4,-37,33,40,-53,-26,-93,-106,-120
636,-33,22,56,5,-45,38,40,-53,-26,-93,-106,-126
637,-33,26,60,4,-46,42,40,-53,-26,-93,-106,-120
638,-33,22,56,5,-45,38,33,-53,-26,-93,-106,-133
639,-33,26,60,4,-46,42,26,-53,-26,-93,-106,-120
640,-36,24,60,6,-48,41,26,-53,-26,-93,-120,-113
641,-40,20,60,10,-50,40,26,-53,-26,-93,-106,-120
642,-44,20,64,12,-54,41,33,-53,-33,-86,-106,-106
643,-40,20,60,10,-50,40,40,-53,-40,-93,-106,-106
644,-42,13,56,14,-49,34,33,-46,-40,-106,-120,-106
645,-46,13,60,17,-53,36,26,-40,-40,-106,-120,-106
646,-40,20,60,10,-50,40,40,-46,-40,-106,-106,-106
647,-40,20,60,10,-50,40,40,-53,-40,-93,-106,-106
648,-40,16,56,12,-48,36,40,-53,-33,-93,-106,-120
649,-33,13,46,10,-40,29,40,-53,-26,-93,-106,-120
650,-30,13,44,9,-37,28,33,-46,-40,-100,-106,-120
651,-26,13,40,6,-33,26,26,-40,-40,-93,-106,-120
652,-30,10,41,10,-36,25,33,-46,-40,-100,-106,-100
653,-26,13,40,6,-33,26,26,-53,-40,-106,-106,-93
654,-33,6,40,13,-37,22,26,-66,-40,-106,-126,-106
655,-33,6,40,13,-37,22,26,-66,-40,-106,-120,-93
656,-36,6,42,14,-40,24,26,-60,-40,-106,-120,-93
657,-40,13,53,13,-46,33,26,-53,-40,-106,-120,-93
658,-46,9,56,18,-52,32,26,-53,-40,-100,-113,-113
659,-46,13,60,17,-53,36,26,-53,-40,-80,-106,-106
660,-44,16,60,14,-52,37,20,-53,-40,-93,-106,-106
661,-33,20,53,6,-44,36,13,-53,-40,-93,-106,-106
662,-36,20,56,8,-46,37,13,-53,-40,-93,-100,-106
663,-40,20,60,10,-50,40,13,-53,-40,-93,-106,-106
664,-46,20,66,13,-57,42,13,-53,-40,-100,-100,-106
665,-53,20,73,17,-64,46,13,-53,-40,-93,-106,-106
666,-57,20,77,18,-68,48,20,-53,-46,-93,-106,-100
667,-60,13,73,24,-66,42,26,-53,-40,-93,-106,-93
668,-66,13,80,26,-73,46,20,-53,-53,-93,-106,-106
669,-66,13,80,26,-73,46,26,-53,-53,-93,-106,-106
670,-60,4,64,28,-62,33,20,-40,-46,-93,-106,-106
671,-60,-6,53,33,-57,22,13,-53,-53,-93,-106,-106
672,-60,-4,56,32,-58,25,13,-46,-46,-93,-106,-113
673,-60,-6,53,33,-57,22,13,-40,-53,-93,-106,-120
674,-60,-6,53,33,-57,22,13,-40,-53,-93,-106,-120
675,-53,-6,46,30,-50,20,13,-40,-53,-93,-106,-120
676,-46,-6,40,26,-44,16,13,-40,-53,-93,-106,-113
677,-53,-6,46,30,-50,20,0,-40,-53,-93,-106,-120
678,-57,-4,53,30,-56,24,6,-20,-53,-93,-113,-120
679,-46,0,46,24,-46,22,0,-26,-53,-93,-106,-106
680,-60,-9,50,34,-56,20,13,-20,-53,-80,-113,-113
681,-53,-13,40,33,-46,13,13,-40,-53,-80,-120,-120
682,-62,-9,53,36,-58,21,6,-26,-66,-100,-120,-133
683,-66,-13,53,40,-60,20,13,-40,-66,-93,-120,-133
684,-62,-20,42,41,-53,10,6,-46,-60,-100,-120,-113
685,-60,-26,33,44,-46,2,0,-40,-53,-93,-120,-106
686,-62,-20,42,41,-53,10,-6,-53,-60,-93,-120,-113
687,-66,-26,40,46,-53,6,-13,-53,-53,-93,-120,-106
688,-66,-22,44,45,-56,10,-13,-53,-53,-86,-113,-113
689,-66,-33,33,50,-50,0,-13,-53,-53,-80,-120,-106
690,-66,-33,33,50,-50,0,-6,-60,-53,-86,-106,-106
691,-73,-33,40,53,-57,2,0,-53,-53,-93,-106,-106
692,-64,-26,37,45,-50,5,0,-53,-46,-80,-106,-106
693,-66,-26,40,46,-53,6,0,-40,-53,-80,-106,-106
694,-69,-30,38,50,-54,4,0,-53,-53,-86,-113,-113
695,-73,-26,46,50,-60,9,13,-53,-53,-80,-120,-120
696,-70,-29,41,50,-56,5,13,-60,-60,-86,-120,-106
697,-66,-33,33,50,-50,0,13,-53,-66,-80,-120,-106
698,-66,-33,33,50,-50,0,13,-60,-66,-93,-113,-100
699,-73,-33,40,53,-57,2,13,-53,-66,-93,-106,-106
700,-66,-33,33,50,-50,0,20,-53,-80,-93,-106,-113
701,-66,-33,33,50,-50,0,26,-53,-80,-93,-106,-106
702,-66,-42,24,54,-45,-9,20,-46,-73,-93,-113,-120
703,-66,-40,26,53,-46,-6,26,-40,-80,-93,-120,-106
704,-66,-40,26,53,-46,-6,20,-46,-73,-93,-120,-126
705,-66,-40,26,53,-46,-6,26,-40,-80,-93,-120,-133
706,-60,-40,20,50,-40,-10,26,-60,-73,-86,-120,-120
707,-60,-33,26,46,-44,-4,26,-53,-80,-93,-120,-120
708,-66,-44,22,56,-45,-10,20,-53,-73,-100,-113,-133
709,-60,-40,20,50,-40,-10,40,-66,-80,-80,-106,-133
710,-70,-42,28,57,-49,-8,33,-46,-66,-100,-106,-113
711,-66,-40,26,53,-46,-6,26,-40,-66,-93,-106,-106
712,-60,-33,26,46,-44,-4,46,-40,-66,-93,-106,-106
713,-60,-40,20,50,-40,-10,40,-40,-66,-93,-106,-106
714,-62,-37,25,50,-44,-6,46,-40,-66,-86,-100,-106
715,-66,-33,33,50,-50,0,53,-40,-66,-80,-93,-106
716,-62,-40,22,52,-42,-9,46,-40,-66,-80,-100,-106
717,-66,-33,33,50,-50,0,40,-40,-66,-80,-106,-106
718,-73,-40,33,57,-53,-4,33,-40,-66,-86,-106,-106
719,-73,-33,40,53,-57,2,26,-40,-66,-93,-106,-106
720,-73,-37,36,56,-54,-1,26,-40,-66,-93,-93,-106
721,-73,-40,33,57,-53,-4,26,-40,-66,-93,-106,-106
722,-70,-33,37,52,-54,1,20,-40,-53,-86,-100,-113
723,-66,-33,33,50,-50,0,13,-40,-53,-80,-93,-106
724,-53,-33,20,44,-37,-6,20,-40,-53,-80,-93,-106
725,-53,-33,20,44,-37,-6,40,-40,-53,-80,-93,-106
726,-53,-30,22,42,-38,-4,40,-46,-46,-86,-100,-106
727,-53,-33,20,44,-37,-6,40,-53,-53,-93,-106,-106
728,-53,-33,20,44,-37,-6,33,-60,-66,-93,-106,-113
729,-60,-33,26,46,-44,-4,26,-66,-66,-93,-106,-120
730,-53,-37,16,45,-34,-10,26,-60,-60,-93,-113,-106
731,-53,-40,13,46,-33,-13,26,-53,-53,-93,-120,-106
732,-46,-40,6,44,-26,-17,26,-66,-53,-106,-113,-120
733,-40,-40,0,40,-20,-20,26,-66,-53,-106,-106,-120
734,-37,-33,4,36,-21,-14,33,-60,-53,-86,-106,-120
735,-33,-33,0,33,-17,-17,40,-66,-53,-93,-106,-106
736,-53,-36,17,45,-36,-9,40,-60,-60,-86,-113,-113
737,-53,-40,13,46,-33,-13,40,-53,-66,-93,-120,-120
738,-40,-33,6,37,-24,-13,46,-60,-66,-93,-120,-120
739,-33,-33,0,33,-17,-17,53,-53,-53,-93,-120,-120
740,-26,-37,-10,32,-8,-24,46,-60,-66,-93,-120,-120
741,-26,-26,0,26,-13,-13,40,-66,-66,-93,-120,-120
742,-26,-26,0,26,-13,-13,46,-60,-60,-86,-106,-100
743,-26,-26,0,26,-13,-13,40,-53,-40,-80,-120,-106
744,-20,-20,0,20,-10,-10,46,-53,-53,-80,-120,-113
745,-20,-20,0,20,-10,-10,53,-53,-40,-80,-106,-106
746,-20,-10,9,16,-14,-1,53,-53,-40,-80,-120,-113
747,-20,-13,6,17,-13,-4,53,-53,-40,-80,-120,-106
748,-13,-13,0,13,-6,-6,53,-53,-40,-80,-100,-106
749,-6,-13,-6,10,0,-10,53,-53,-40,-80,-106,-106
750,-16,-6,9,12,-13,1,53,-40,-40,-80,-93,-100
751,-13,-13,0,13,-6,-6,40,-26,-40,-80,-93,-106
752,-13,-20,-6,17,-4,-13,40,-33,-40,-66,-93,-106
753,-20,-20,0,20,-10,-10,40,-40,-40,-80,-93,-106
754,0,-10,-10,5,5,-10,40,-46,-20,-66,-86,-106
755,0,-6,-6,4,2,-6,40,-40,-13,-66,-80,-106
756,-4,0,4,2,-4,1,40,-46,-13,-73,-66,-106
757,0,6,6,-2,-4,6,40,-53,-13,-66,-66,-106
758,-9,6,16,1,-13,10,40,-53,-13,-66,-66,-106
759,-13,6,20,4,-17,13,53,-53,-13,-66,-66,-106
760,-16,9,25,4,-21,17,53,-53,6,-60,-66,-100
761,-26,13,40,6,-33,26,53,-53,13,-53,-66,-93
762,-33,10,44,12,-38,26,46,-33,6,-53,-66,-100
763,-26,13,40,6,-33,26,53,-40,0,-53,-66,-93
764,-6,4,10,1,-9,6,60,-33,-6,-46,-66,-113
765,20,6,-13,-13,16,-4,66,-40,0,-40,-66,-106
766,17,4,-13,-10,14,-5,53,-46,-13,-40,-66,-100
767,20,0,-20,-9,20,-10,53,-40,0,-26,-66,-106
768,6,4,-2,-5,4,0,46,-40,6,-26,-66,-100
769,6,0,-6,-2,6,-4,40,-26,13,-26,-66,-106
770,0,-2,-2,1,1,-2,46,-40,20,-20,-66,-100
771,-6,-6,0,6,-4,-4,53,-40,13,-26,-66,-93
772,-6,-6,0,6,-4,-4,46,-40,6,-33,-66,-106
773,-6,-13,-6,10,0,-10,40,-40,0,-40,-66,-106
774,-13,-13,0,13,-6,-6,53,-40,6,-46,-66,-100
775,-6,-6,0,6,-4,-4,66,-40,13,-53,-66,-93
776,0,-4,-4,2,1,-4,73,-33,13,-53,-66,-93
777,0,-6,-6,4,2,-6,80,-26,13,-53,-66,-93
778,-2,-4,-1,4,-1,-2,80,-40,6,-40,-60,-100
779,-6,6,13,0,-10,9,80,-40,13,-40,-53,-93
780,2,6,4,-4,-1,5,73,-40,13,-40,-53,-93
781,13,13,0,-13,6,6,66,-40,13,-40,-53,-93
782,13,17,4,-14,4,10,66,-46,20,-26,-46,-80
783,6,13,6,-9,0,9,66,-40,26,-26,-53,-80
784,20,26,6,-22,6,16,73,-26,20,-33,-46,-80
785,20,33,13,-26,2,22,80,-26,26,-40,-53,-66
786,26,40,13,-33,6,26,73,-20,26,-26,-60,-60
787,33,53,20,-42,6,36,66,-13,26,-26,-53,-53
788,46,66,20,-56,13,42,53,-13,20,-26,-53,-60
789,60,73,13,-66,22,42,40,-13,13,-26,-53,-66
790,57,69,12,-62,22,40,33,-6,13,-40,-66,-73
791,53,73,20,-62,16,46,26,0,13,-40,-66,-80
792,60,70,10,-65,24,40,6,-13,13,-33,-66,-66
793,60,66,6,-62,26,36,0,-13,13,-40,-66,-66
794,53,64,10,-58,21,37,0,-33,13,-46,-80,-66
795,53,60,6,-56,22,33,0,-40,13,-53,-80,-66
796,37,57,20,-46,8,38,-6,-33,0,-60,-80,-66
797,33,53,20,-42,6,36,-13,-40,0,-53,-80,-66
798,30,53,22,-41,4,37,6,-53,0,-53,-73,-66
799,26,53,26,-40,0,40,13,-53,0,-53,-80,-66
800,29,50,21,-40,4,36,26,-60,-26,-73,-86,-73
801,26,46,20,-36,2,33,26,-66,-26,-80,-93,-80
802,20,37,17,-28,1,26,26,-66,-40,-80,-93,-80
803,20,33,13,-26,2,22,40,-66,-40,-93,-93,-80
804,20,33,13,-26,2,22,33,-80,-53,-100,-113,-93
805,20,26,6,-22,6,16,26,-80,-53,-106,-120,-93
806,13,20,6,-16,2,13,33,-73,-40,-93,-106,-86
807,13,20,6,-16,2,13,26,-80,-40,-93,-106,-93
808,13,13,0,-13,6,6,26,-80,-53,-106,-106,-86
809,20,13,-6,-16,13,2,26,-80,-40,-93,-106,-80
810,29,13,-16,-21,22,-1,13,-66,-46,-100,-120,-93
811,33,13,-20,-22,26,-4,13,-66,-53,-106,-120,-93
812,40,20,-20,-29,29,0,20,-66,-53,-93,-113,-93
813,46,20,-26,-33,36,-4,13,-53,-53,-93,-106,-93
814,49,6,-42,-28,45,-18,6,-46,-40,-93,-106,-93
815,40,13,-26,-26,33,-6,0,-40,-40,-80,-106,-93
816,30,6,-24,-18,26,-9,13,-26,-20,-86,-100,-86
817,26,6,-20,-16,22,-6,13,-40,-13,-93,-106,-80
818,29,2,-26,-16,28,-12,20,-33,-33,-106,-120,-80
819,33,6,-26,-20,29,-10,13,-40,-40,-106,-120,-80
820,22,9,-13,-16,17,-2,6,-46,-40,-93,-106,-100
821,26,13,-13,-20,20,0,0,-53,-53,-93,-106,-106
822,26,6,-20,-16,22,-6,6,-80,-53,-93,-113,-106
823,26,0,-26,-13,26,-13,13,-93,-66,-106,-133,-106
824,29,2,-26,-16,28,-12,0,-86,-66,-106,-133,-120
825,33,0,-33,-16,33,-17,0,-93,-66,-120,-133,-120
826,26,2,-24,-14,25,-10,-6,-86,-66,-120,-133,-120
827,26,6,-20,-16,22,-6,0,-80,-66,-120,-133,-120
828,24,6,-17,-14,20,-5,0,-80,-60,-120,-126,-133
829,20,6,-13,-13,16,-4,-13,-80,-53,-120,-133,-133
830,20,6,-13,-13,16,-4,-20,-86,-53,-120,-133,-133
831,6,6,0,-6,2,2,-13,-93,-53,-120,-133,-133
832,0,13,13,-6,-6,13,-13,-86,-53,-120,-133,-133
833,0,13,13,-6,-6,13,-13,-80,-53,-120,-133,-133
834,2,6,4,-4,-1,5,-20,-86,-60,-120,-140,-133
835,6,6,0,-6,2,2,-26,-93,-66,-120,-146,-133
836,0,9,9,-4,-5,9,-26,-86,-66,-120,-140,-133
837,6,6,0,-6,2,2,-26,-80,-66,-120,-133,-133
838,0,0,0,0,0,0,-33,-86,-60,-126,-140,-133
839,6,0,-6,-2,6,-4,-40,-80,-53,-133,-146,-133
840,2,-6,-9,2,5,-8,-26,-80,-53,-113,-140,-133
841,6,-6,-13,0,9,-10,-26,-80,-53,-106,-133,-133
842,0,-9,-9,5,4,-9,-26,-80,-53,-106,-133,-133
843,-6,-6,0,6,-4,-4,-26,-80,-53,-106,-133,-133
844,-9,-13,-4,12,-2,-9,-26,-80,-60,-126,-140,-133
845,-13,-20,-6,17,-4,-13,-26,-80,-66,-120,-146,-133
846,-16,-20,-4,18,-6,-12,-20,-80,-66,-120,-146,-133
847,-26,-20,6,24,-17,-6,-13,-80,-66,-120,-146,-133
848,-29,-16,13,22,-21,-1,-13,-73,-66,-113,-146,-133
849,-26,-20,6,24,-17,-6,-13,-66,-66,-106,-146,-133
850,-30,-17,13,24,-22,-2,-6,-80,-80,-120,-146,-140
851,-26,-20,6,24,-17,-6,0,-80,-66,-120,-146,-146
852,-33,-22,10,28,-22,-6,-6,-86,-66,-120,-146,-146
853,-33,-20,13,26,-24,-4,-13,-93,-66,-120,-146,-146
854,-26,-24,2,25,-14,-10,-6,-100,-66,-126,-146,-133
855,-33,-20,13,26,-24,-4,0,-106,-66,-133,-146,-133
856,-33,-24,9,29,-21,-8,6,-100,-73,-126,-153,-133
857,-26,-13,13,20,-20,0,13,-93,-66,-120,-146,-133
858,-20,-9,10,14,-16,0,6,-93,-66,-120,-140,-133
859,-20,-13,6,17,-13,-4,13,-93,-66,-120,-133,-133
860,-17,-10,6,14,-12,-2,6,-86,-73,-133,-140,-140
861,-20,-13,6,17,-13,-4,0,-80,-80,-120,-146,-146
862,-22,-20,2,21,-13,-9,-6,-80,-80,-120,-146,-146
863,-33,-26,6,30,-20,-10,0,-80,-80,-120,-146,-146
864,-29,-29,0,29,-14,-14,0,-86,-73,-120,-146,-153
865,-33,-33,0,33,-17,-17,0,-80,-66,-120,-146,-146
866,-33,-33,0,33,-17,-17,-6,-86,-66,-120,-146,-146
867,-33,-33,0,33,-17,-17,-13,-93,-66,-120,-160,-146
868,-33,-26,6,30,-20,-10,6,-80,-66,-120,-146,-140
869,-33,-20,13,26,-24,-4,0,-80,-66,-120,-146,-133
870,-40,-26,13,33,-26,-6,0,-80,-73,-120,-140,-133
871,-40,-26,13,33,-26,-6,0,-80,-80,-120,-133,-133
872,-33,-26,6,30,-20,-10,0,-80,-80,-113,-133,-133
873,-40,-20,20,30,-30,0,0,-80,-80,-106,-133,-133
874,-40,-26,13,33,-26,-6,0,-80,-80,-113,-133,-120
875,-40,-33,6,37,-24,-13,0,-80,-80,-120,-133,-120
876,-40,-33,6,37,-24,-13,0,-93,-80,-113,-126,-126
877,-33,-26,6,30,-20,-10,0,-93,-80,-106,-120,-120
878,-33,-22,10,28,-22,-6,0,-86,-73,-106,-120,-120
879,-33,-26,6,30,-20,-10,0,-80,-66,-106,-120,-120
880,-33,-33,0,33,-17,-17,6,-80,-66,-106,-113,-106
881,-33,-26,6,30,-20,-10,13,-80,-66,-106,-120,-106
882,-26,-33,-6,30,-10,-20,6,-80,-66,-106,-120,-106
883,-33,-33,0,33,-17,-17,0,-66,-66,-106,-120,-106
884,-40,-33,6,37,-24,-13,13,-66,-66,-113,-120,-106
885,-33,-33,0,33,-17,-17,13,-66,-66,-120,-120,-106
886,-46,-40,6,44,-26,-17,6,-66,-66,-120,-113,-106
887,-40,-40,0,40,-20,-20,13,-66,-66,-120,-106,-106
888,-40,-40,0,40,-20,-20,6,-73,-60,-120,-113,-106
889,-40,-33,6,37,-24,-13,13,-80,-53,-120,-120,-106
890,-40,-29,10,34,-25,-9,13,-66,-53,-113,-106,-100
891,-46,-33,13,40,-30,-10,13,-66,-66,-120,-106,-106
892,-40,-26,13,33,-26,-6,0,-73,-53,-120,-100,-100
893,-40,-26,13,33,-26,-6,0,-66,-53,-120,-93,-93
894,-30,-26,4,29,-17,-12,13,-66,-60,-126,-113,-100
895,-33,-26,6,30,-20,-10,13,-53,-53,-120,-106,-106
896,-26,-33,-6,30,-10,-20,26,-66,-60,-100,-113,-100
897,-20,-33,-13,26,-4,-24,26,-66,-40,-80,-120,-93
898,-36,-17,18,26,-28,0,46,-60,-26,-66,-100,-93
899,-40,-13,26,26,-33,6,66,-53,13,-53,-93,-106
900,-60,-2,57,32,-58,26,73,-26,40,-33,-86,-113
901,-80,6,86,37,-84,46,80,-13,93,0,-80,-120
902,-96,22,118,37,-108,70,113,0,140,33,-66,-113
903,-113,46,160,33,-137,102,146,13,200,66,-53,-106
904,-129,62,192,33,-161,126,160,26,220,106,-26,-120
905,-133,80,213,26,-173,146,173,53,253,133,-13,-133
906,-126,96,222,16,-174,158,186,80,293,166,20,-126
907,-113,113,226,0,-170,169,200,106,320,200,40,-120
908,-110,120,230,-4,-170,174,206,140,340,226,66,-86
909,-100,133,233,-16,-166,182,213,173,373,266,106,-66
910,-80,144,224,-32,-152,184,206,186,380,293,133,-46
911,-60,153,213,-46,-137,182,213,213,400,333,186,-26
912,-53,180,233,-62,-144,206,213,253,440,393,246,13
913,-46,193,240,-73,-144,216,213,306,480,466,306,53
914,-36,213,249,-88,-142,230,200,373,533,540,373,106
915,-20,233,253,-106,-137,242,186,440,560,586,453,160
916,6,236,229,-121,-112,232,180,533,600,680,533,240
917,40,240,200,-140,-80,220,173,613,613,720,586,293
918,80,240,160,-160,-40,200,153,680,613,760,646,353
919,126,240,113,-182,6,176,120,733,613,786,706,426
920,182,240,57,-210,62,148,66,740,553,806,773,506
921,233,260,26,-246,102,142,0,706,506,813,826,600
922,273,289,16,-281,128,152,-53,653,453,806,886,673
923,313,313,0,-313,156,156,-106,586,373,800,946,760
924,344,357,13,-350,165,185,-166,533,320,793,1013,880
925,373,393,20,-382,176,206,-226,426,253,786,1080,960
926,396,437,41,-416,177,238,-300,260,173,733,1120,1060
927,413,480,66,-446,173,273,-360,106,93,693,1160,1133
928,429,526,97,-477,165,312,-426,-26,20,646,1180,1200
929,446,573,126,-509,160,349,-480,-160,-40,613,1213,1266
930,476,613,137,-544,169,374,-580,-300,-133,606,1273,1353
931,513,660,146,-586,182,402,-653,-426,-226,586,1320,1440
932,533,686,153,-609,189,420,-706,-526,-320,553,1373,1513
933,566,680,113,-622,226,396,-746,-626,-413,493,1373,1546
934,596,642,46,-618,274,344,-780,-740,-526,366,1293,1533
935,600,553,-46,-576,322,253,-786,-840,-640,226,1120,1453
936,569,426,-142,-497,356,141,-780,-1000,-806,-13,873,1293
937,540,306,-233,-422,386,36,-773,-1093,-920,-200,626,1133
938,516,166,-349,-341,432,-92,-753,-1166,-1033,-373,420,966
939,493,80,-413,-286,453,-166,-746,-1240,-1106,-480,253,840
940,466,6,-460,-236,462,-226,-760,-1340,-1226,-633,73,700
941,413,-60,-473,-176,442,-266,-773,-1426,-1280,-733,-66,546
942,344,-106,-450,-118,397,-278,-746,-1526,-1333,-826,-213,406
943,280,-160,-440,-60,360,-300,-746,-1600,-1360,-906,-333,266
944,240,-200,-440,-20,340,-320,-733,-1653,-1420,-1000,-453,146
945,193,-240,-433,24,313,-337,-720,-1693,-1453,-1093,-586,13
946,124,-290,-414,84,269,-353,-693,-1786,-1486,-1246,-786,-213
947,80,-333,-413,126,246,-373,-666,-1853,-1533,-1373,-946,-346
948,53,-393,-446,170,249,-420,-640,-1893,-1580,-1446,-1040,-453
949,26,-426,-453,200,240,-440,-640,-1893,-1600,-1493,-1093,-520
950,2,-446,-449,222,225,-448,-620,-1846,-1580,-1506,-1100,-540
951,-6,-473,-466,240,229,-470,-600,-1786,-1573,-1506,-1120,-573
952,-17,-500,-482,258,232,-492,-566,-1706,-1546,-1506,-1133,-613
953,-26,-526,-500,277,236,-513,-546,-1626,-1493,-1493,-1133,-626
954,-60,-524,-464,292,201,-494,-493,-1540,-1433,-1460,-1126,-660
955,-86,-533,-446,310,180,-490,-453,-1453,-1373,-1426,-1120,-653
956,-104,-546,-442,325,169,-494,-413,-1386,-1333,-1400,-1113,-666
957,-133,-553,-420,344,142,-486,-386,-1320,-1280,-1360,-1093,-666
958,-153,-560,-406,357,126,-484,-353,-1273,-1226,-1320,-1060,-680
959,-166,-553,-386,360,109,-470,-333,-1213,-1186,-1266,-1026,-680
960,-173,-542,-369,358,97,-456,-320,-1166,-1140,-1220,-980,-653
961,-166,-520,-353,344,93,-437,-306,-1106,-1093,-1160,-946,-626
962,-162,-500,-337,332,86,-418,-313,-1040,-1040,-1093,-880,-606
963,-160,-473,-313,317,76,-393,-320,-986,-986,-1040,-840,-573
964,-156,-440,-284,298,64,-362,-306,-926,-926,-986,-786,-553
965,-146,-426,-280,286,66,-353,-293,-880,-893,-933,-760,-533
966,-140,-420,-280,280,69,-350,-273,-826,-860,-900,-740,-526
967,-140,-413,-273,277,66,-344,-266,-786,-813,-866,-706,-506
968,-126,-406,-280,266,76,-344,-253,-746,-786,-813,-673,-493
969,-106,-386,-280,246,86,-333,-253,-706,-746,-773,-640,-466
970,-113,-366,-253,240,69,-310,-240,-660,-693,-713,-600,-453
971,-120,-346,-226,233,53,-286,-213,-600,-640,-666,-560,-426
972,-113,-330,-217,222,52,-274,-200,-553,-606,-620,-526,-406
973,-113,-313,-200,213,42,-257,-186,-520,-573,-600,-506,-386
974,-113,-300,-186,206,36,-244,-153,-480,-533,-553,-480,-366
975,-100,-273,-173,186,36,-224,-133,-440,-506,-520,-453,-346
976,-77,-249,-172,164,46,-210,-126,-413,-460,-500,-426,-340
977,-66,-226,-160,146,46,-193,-106,-386,-426,-466,-400,-320
978,-60,-206,-146,133,42,-177,-80,-353,-400,-440,-386,-306
979,-46,-180,-133,113,42,-157,-66,-320,-346,-400,-360,-280
980,-30,-166,-136,98,52,-152,-40,-280,-320,-373,-333,-260
981,-26,-140,-113,84,42,-126,-26,-240,-293,-346,-306,-240
982,-20,-126,-106,73,42,-117,-6,-200,-253,-306,-273,-226
983,-13,-106,-93,60,40,-100,13,-146,-226,-280,-253,-213
984,-6,-89,-82,48,37,-86,26,-126,-180,-253,-220,-200
985,6,-80,-86,37,46,-84,26,-106,-160,-226,-200,-186
986,9,-66,-76,29,42,-72,33,-93,-140,-200,-193,-173
987,13,-46,-60,17,36,-53,26,-66,-120,-186,-173,-173
988,29,-26,-56,-1,42,-41,33,-53,-100,-160,-160,-160
989,26,-13,-40,-6,33,-26,26,-40,-93,-146,-146,-146
990,29,-6,-36,-10,32,-21,33,-26,-66,-133,-133,-146
991,33,0,-33,-16,33,-17,40,-13,-53,-120,-120,-133
992,24,13,-10,-18,17,1,33,0,-40,-106,-126,-140
993,26,26,0,-26,13,13,26,0,-26,-93,-120,-133
994,26,40,13,-33,6,26,33,20,-13,-73,-100,-126
995,26,53,26,-40,0,40,26,26,0,-66,-93,-106
996,26,60,33,-42,-4,46,20,26,0,-53,-80,-106
997,20,66,46,-42,-13,56,13,26,13,-53,-80,-93
998,13,73,60,-42,-24,66,20,26,13,-40,-60,-93
999,6,80,73,-42,-33,76,26,26,26,-40,-53,-93
1000,13,89,76,-50,-32,82,13,26,26,-26,-60,-80
1001,13,100,86,-56,-37,93,13,40,26,-26,-53,-80
1002,13,106,93,-60,-40,100,6,33,40,-20,-53,-86
1003,13,106,93,-60,-40,100,13,26,40,-26,-53,-80
1004,6,113,106,-60,-50,109,20,33,53,-26,-53,-93
1005,6,113,106,-60,-50,109,26,26,53,-26,-53,-80
1006,6,106,100,-56,-46,102,33,46,46,-26,-53,-86
1007,0,106,106,-53,-53,106,40,53,40,-13,-53,-66
1008,9,110,101,-60,-46,105,46,46,53,-13,-46,-80
1009,13,106,93,-60,-40,100,53,40,53,-13,-53,-66
1010,16,116,100,-65,-42,108,60,60,46,6,-46,-80
1011,20,120,100,-69,-40,109,53,66,53,13,-40,-66
1012,20,120,100,-69,-40,109,60,73,73,13,-40,-60
1013,20,126,106,-73,-44,116,53,93,66,26,-26,-53
1014,20,130,110,-74,-45,120,66,73,73,26,-26,-60
1015,20,126,106,-73,-44,116,53,66,66,26,-26,-66
1016,20,126,106,-73,-44,116,40,93,66,26,-13,-53
1017,20,133,113,-76,-46,122,26,93,80,26,-13,-53
1018,20,136,116,-77,-48,125,26,106,86,40,-6,-53
1019,26,140,113,-82,-44,126,26,106,93,40,0,-53
1020,22,140,117,-81,-48,128,33,106,93,40,0,-46
1021,26,140,113,-82,-44,126,26,106,93,40,0,-40
1022,24,137,113,-80,-45,125,20,113,93,53,0,-26
1023,26,133,106,-80,-40,120,26,120,93,53,13,-26
1024,26,140,113,-82,-44,126,26,113,93,53,13,-26
1025,26,133,106,-80,-40,120,26,120,106,53,13,-26
1026,30,136,105,-82,-37,120,33,120,86,53,13,-33
1027,26,140,113,-82,-44,126,40,120,80,53,13,-40
1028,24,137,113,-80,-45,125,40,113,93,46,6,-40
1029,26,133,106,-80,-40,120,53,120,93,53,13,-40
1030,13,130,117,-72,-52,124,46,120,100,53,13,-40
1031,0,126,126,-62,-64,126,40,133,106,53,13,-40
1032,2,126,124,-64,-61,125,40,140,100,60,26,-26
1033,0,126,126,-62,-64,126,40,146,106,80,26,-26
1034,-2,129,132,-62,-68,130,33,146,106,80,26,-26
1035,0,126,126,-62,-64,126,26,146,106,80,26,-26
1036,0,133,133,-66,-66,133,33,146,113,80,40,-6
1037,13,146,133,-80,-60,140,26,146,120,80,40,0
1038,26,144,117,-85,-45,130,46,146,120,86,46,-6
1039,26,146,120,-86,-46,133,53,146,120,80,53,0
1040,24,140,116,-81,-46,128,53,140,120,80,60,0
1041,26,146,120,-86,-46,133,53,146,120,80,53,0
1042,26,144,117,-85,-45,130,53,140,120,80,53,-6
1043,26,133,106,-80,-40,120,66,133,120,80,53,-13
1044,24,130,106,-77,-41,118,60,146,120,93,66,-6
1045,20,126,106,-73,-44,116,53,146,133,93,66,0
1046,10,126,116,-68,-53,121,60,140,133,100,66,-6
1047,6,126,120,-66,-57,122,66,146,133,106,66,-13
1048,-6,126,133,-60,-70,129,60,146,140,106,73,0
1049,-13,120,133,-53,-73,126,53,146,133,106,80,0
1050,-13,113,126,-49,-70,120,46,166,133,106,73,0
1051,-13,106,120,-46,-66,113,53,173,146,120,80,0
1052,-16,106,122,-45,-69,114,53,173,140,113,80,13
1053,-13,106,120,-46,-66,113,53,173,133,120,80,13
1054,-13,106,120,-46,-66,113,53,173,133,120,93,13
1055,-20,106,126,-42,-73,116,53,173,133,120,93,13
1056,-20,102,122,-41,-72,112,53,193,146,120,93,26
1057,-20,106,126,-42,-73,116,53,200,146,133,93,26
1058,-4,109,113,-52,-58,110,60,206,153,146,100,33
1059,6,113,106,-60,-50,109,66,213,146,146,106,40
1060,16,117,101,-66,-42,109,66,206,153,140,106,40
1061,13,120,106,-66,-46,113,66,213,146,133,106,40
1062,10,117,106,-64,-48,112,66,213,153,146,120,40
1063,13,120,106,-66,-46,113,80,213,160,146,120,40
1064,6,116,109,-61,-52,112,66,220,160,146,120,53
1065,13,120,106,-66,-46,113,80,226,160,160,120,53
1066,13,113,100,-62,-44,106,73,226,166,160,126,46
1067,13,113,100,-62,-44,106,80,240,173,160,133,53
1068,22,120,97,-70,-37,108,80,246,173,166,126,53
1069,40,126,86,-82,-24,106,80,253,186,173,133,66
1070,42,120,77,-81,-17,98,86,260,166,173,140,66
1071,46,113,66,-80,-10,89,80,253,173,173,146,66
1072,44,117,73,-80,-14,94,93,273,173,173,140,66
1073,46,113,66,-80,-10,89,93,280,173,186,133,66
1074,44,106,62,-74,-9,84,93,280,173,180,146,73
1075,33,106,73,-69,-20,89,93,280,186,173,146,66
1076,30,109,78,-69,-24,93,93,280,193,186,146,73
1077,26,113,86,-69,-30,100,93,280,200,186,146,80
1078,26,116,89,-70,-32,102,113,273,200,200,146,80
1079,26,120,93,-73,-33,106,120,280,200,213,146,80
1080,24,117,93,-70,-34,105,100,280,213,206,146,80
1081,26,113,86,-69,-30,100,93,280,213,213,160,80
1082,30,117,86,-73,-28,101,106,280,213,206,160,93
1083,20,113,93,-66,-37,102,93,293,213,200,160,93
1084,33,120,86,-76,-26,102,86,293,206,206,160,86
1085,26,120,93,-73,-33,106,93,293,213,213,160,93
1086,29,120,90,-74,-30,105,93,293,226,213,160,100
1087,33,126,93,-80,-30,109,93,306,240,226,173,106
1088,40,136,96,-88,-28,116,80,313,240,233,173,106
1089,53,146,93,-100,-20,120,66,320,253,240,173,106
1090,50,146,96,-98,-22,121,73,320,253,246,180,106
1091,53,153,100,-102,-24,126,80,333,253,253,186,120
1092,50,150,100,-100,-25,125,80,326,260,266,186,113
1093,46,146,100,-96,-26,122,80,320,240,253,186,106
1094,46,144,97,-94,-25,120,86,320,260,253,193,113
1095,46,146,100,-96,-26,122,93,320,266,266,200,120
1096,40,144,104,-92,-32,124,113,320,266,260,193,120
1097,40,140,100,-89,-30,120,106,333,266,253,186,120
1098,44,144,100,-93,-28,121,106,326,253,246,193,113
1099,40,146,106,-93,-33,126,120,333,253,253,186,120
1100,36,153,117,-94,-41,134,113,333,253,253,200,120
1101,40,160,120,-100,-40,140,93,333,266,253,200,120
1102,49,160,110,-104,-30,134,93,346,273,253,200,113
1103,60,166,106,-113,-24,136,106,346,280,266,200,120
1104,56,166,110,-110,-28,138,113,353,280,273,213,126
1105,66,166,100,-116,-17,133,106,360,280,280,213,133
1106,62,173,110,-117,-24,141,100,373,273,280,220,140
1107,66,180,113,-122,-24,146,106,373,280,293,226,146
1108,60,177,117,-118,-29,146,106,373,286,293,220,140
1109,66,180,113,-122,-24,146,106,373,293,293,226,146
1110,57,180,122,-118,-33,150,106,366,293,286,226,140
1111,60,186,126,-122,-33,156,106,360,293,280,226,133
1112,62,200,137,-130,-37,168,106,353,306,300,240,146
1113,66,206,140,-136,-37,173,106,360,306,306,240,146
1114,69,213,144,-141,-37,178,113,373,313,306,240,146
1115,66,220,153,-142,-44,186,120,386,320,306,240,146
1116,64,217,153,-140,-45,185,120,393,333,313,260,166
1117,66,220,153,-142,-44,186,106,400,333,333,266,173
1118,66,213,146,-140,-40,180,106,406,333,333,266,173
1119,60,213,153,-136,-46,182,106,413,333,333,280,186
1120,73,216,142,-144,-34,178,106,433,333,346,280,193
1121,73,220,146,-146,-37,182,106,440,346,346,280,200
1122,70,220,149,-145,-40,184,106,426,346,340,293,200
1123,80,226,146,-153,-33,186,106,426,346,333,293,200
1124,73,236,162,-154,-45,198,106,433,360,353,293,213
1125,80,246,166,-162,-44,206,106,440,360,360,306,213
1126,77,244,166,-160,-45,205,106,446,373,360,306,226
1127,73,246,173,-160,-50,209,106,440,373,373,306,226
1128,86,256,169,-170,-41,212,106,440,373,373,320,226
1129,93,260,166,-176,-37,213,106,453,373,373,320,226
1130,93,257,164,-174,-36,210,100,453,366,373,320,226
1131,86,253,166,-169,-40,209,93,453,360,373,320,240
1132,96,250,154,-173,-29,202,86,460,360,380,326,233
1133,93,246,153,-169,-30,200,80,466,373,373,320,240
1134,93,253,160,-173,-33,206,80,480,373,380,326,246
1135,100,253,153,-176,-26,202,80,493,373,386,333,253
1136,104,260,156,-181,-26,208,80,506,380,400,346,266
1137,93,260,166,-176,-37,213,80,506,386,400,346,266
1138,102,257,154,-180,-26,205,86,500,393,400,353,253
1139,113,260,146,-186,-17,202,93,506,386,413,346,253
1140,120,266,146,-193,-13,206,93,506,393,413,346,260
1141,126,273,146,-200,-10,209,80,520,400,413,346,266
1142,124,273,149,-198,-13,210,86,526,406,420,366,273
1143,120,273,153,-196,-17,213,93,533,413,440,373,293
1144,117,273,156,-194,-20,214,86,553,413,433,373,280
1145,113,273,160,-193,-24,216,80,560,413,426,373,293
1146,113,269,156,-190,-21,212,80,566,420,426,373,300
1147,113,273,160,-193,-24,216,80,573,413,440,386,306
1148,113,277,164,-194,-25,220,80,593,413,440,386,300
1149,113,280,166,-196,-26,222,80,613,413,440,386,306
1150,120,280,160,-200,-20,220,86,600,406,440,380,306
1151,120,273,153,-196,-17,213,93,586,400,440,373,306
1152,122,282,160,-202,-18,221,80,600,400,440,386,300
1153,120,280,160,-200,-20,220,80,600,400,440,386,306
1154,126,273,146,-200,-10,209,80,600,400,440,393,313
1155,126,273,146,-200,-10,209,80,600,400,440,400,320
1156,124,270,146,-197,-12,208,80,606,400,446,400,320
1157,126,266,140,-196,-6,202,93,613,400,453,400,320
1158,124,266,142,-194,-9,204,113,606,400,446,406,313
1159,126,260,133,-193,-4,196,106,613,400,453,400,320
1160,124,276,152,-200,-14,213,93,613,400,446,400,320
1161,120,273,153,-196,-17,213,93,613,400,440,400,306
1162,122,266,144,-194,-10,205,100,626,400,446,400,320
1163,126,273,146,-200,-10,209,93,640,400,440,400,320
1164,124,280,156,-201,-16,217,86,640,406,453,386,333
1165,120,280,160,-200,-20,220,80,640,413,440,400,346
1166,126,280,153,-202,-13,216,86,646,400,446,406,346
1167,133,280,146,-206,-6,213,93,653,400,453,413,346
1168,146,289,142,-217,1,216,93,646,400,453,413,346
1169,153,286,133,-220,9,209,93,653,400,453,413,346
1170,156,286,130,-221,12,208,93,646,393,453,413,346
1171,166,286,120,-226,22,202,93,640,386,453,413,346
1172,166,296,129,-230,18,212,86,653,393,446,413,340
1173,166,293,126,-229,20,209,80,640,386,440,400,333
1174,153,290,137,-221,8,213,86,646,386,440,400,333
1175,146,286,140,-216,2,213,80,640,386,440,400,333
1176,146,286,140,-216,2,213,86,640,380,426,400,333
1177,146,280,133,-213,6,206,80,626,373,426,400,333
1178,146,284,137,-214,4,210,80,646,386,440,400,313
1179,146,280,133,-213,6,206,80,640,386,440,386,320
1180,149,276,126,-212,10,201,73,633,386,433,380,313
1181,146,273,126,-209,9,200,80,626,386,426,373,320
1182,149,273,124,-210,12,198,80,613,373,420,380,320
1183,160,273,113,-216,22,193,80,613,373,426,386,320
1184,160,282,122,-221,18,202,80,600,380,433,373,320
1185,153,280,126,-216,13,202,93,600,386,426,373,320
1186,156,276,120,-216,17,197,80,586,373,420,373,320
1187,160,273,113,-216,22,193,80,573,373,400,386,320
1188,156,276,120,-216,17,197,86,573,353,400,373,320
1189,160,273,113,-216,22,193,66,560,346,386,373,320
1190,153,270,117,-212,17,193,66,546,346,380,360,313
1191,146,266,120,-206,13,193,66,533,346,360,360,306
1192,146,260,113,-202,16,186,60,540,333,366,346,306
1193,140,260,120,-200,9,189,53,533,333,360,346,293
1194,140,253,113,-196,13,182,46,506,313,353,333,286
1195,133,253,120,-193,6,186,40,480,306,333,333,280
1196,129,249,120,-189,4,184,53,480,306,333,320,273
1197,133,246,113,-189,9,180,53,466,293,320,306,266
1198,140,249,109,-194,14,178,60,453,293,306,306,260
1199,140,246,106,-193,16,176,66,440,280,306,293,266
1200,133,242,109,-188,12,176,66,420,280,293,280,246
1201,133,240,106,-186,13,173,80,400,266,293,266,226
1202,126,242,116,-184,5,178,86,400,266,273,266,220
1203,126,240,113,-182,6,176,80,386,253,253,253,200
1204,124,233,109,-178,6,170,86,373,253,253,240,193
1205,106,226,120,-166,-6,173,80,360,240,240,226,186
1206,109,226,117,-168,-4,172,73,340,233,240,226,180
1207,113,220,106,-166,2,162,66,320,226,226,213,160
1208,106,220,113,-162,-4,166,66,306,213,213,193,160
1209,106,213,106,-160,0,160,66,306,213,200,186,146
1210,97,204,106,-150,-5,154,73,293,200,193,166,146
1211,86,200,113,-142,-13,156,80,280,200,186,160,133
1212,84,193,109,-138,-13,150,73,280,200,173,146,133
1213,73,186,113,-129,-20,149,66,266,186,160,146,120
1214,76,180,104,-128,-14,141,60,246,186,160,146,113
1215,73,173,100,-122,-13,136,40,240,173,146,133,93
1216,66,166,100,-116,-17,133,46,226,173,146,113,86
1217,60,160,100,-109,-20,129,40,213,173,133,106,80
1218,62,156,93,-109,-16,124,46,213,166,120,100,73
1219,60,153,93,-106,-17,122,53,200,160,120,93,66
1220,62,162,100,-112,-18,130,60,200,160,106,93,66
1221,60,160,100,-109,-20,129,53,186,146,106,80,53
1222,53,157,104,-105,-25,130,66,166,146,106,80,53
1223,53,153,100,-102,-24,126,53,160,146,93,80,53
1224,56,146,90,-101,-17,118,46,146,146,93,66,40
1225,60,146,86,-102,-13,116,53,146,146,80,66,26
1226,44,137,93,-90,-25,114,53,133,126,86,53,20
1227,33,126,93,-80,-30,109,53,133,120,80,40,13
1228,24,120,96,-72,-36,108,46,120,126,73,40,0
1229,20,120,100,-69,-40,109,40,120,120,66,40,0
1230,20,120,100,-69,-40,109,40,106,120,53,20,-13
1231,13,113,100,-62,-44,106,26,106,120,53,13,-13
1232,16,109,93,-62,-38,101,26,100,106,40,20,-13
1233,20,106,86,-62,-33,96,26,80,106,40,13,-26
1234,20,106,86,-62,-33,96,33,80,106,40,13,-26
1235,20,106,86,-62,-33,96,40,66,93,26,0,-26
1236,13,93,80,-53,-33,86,40,66,93,26,-6,-26
1237,13,93,80,-53,-33,86,40,53,93,26,-13,-40
1238,13,90,77,-52,-32,84,33,40,93,33,-6,-40
1239,13,86,73,-49,-30,80,26,26,93,26,-13,-40
1240,13,86,73,-49,-30,80,26,20,93,26,-13,-46
1241,13,86,73,-49,-30,80,26,26,93,26,-13,-40
1242,20,84,64,-52,-22,73,26,20,86,6,-13,-46
1243,20,80,60,-49,-20,69,26,26,66,0,-26,-53
1244,13,82,69,-48,-28,76,26,26,66,0,-26,-66
1245,20,86,66,-53,-24,76,26,13,66,0,-26,-66
1246,10,77,66,-44,-28,72,26,20,66,-6,-33,-60
1247,13,73,60,-42,-24,66,26,26,66,0,-40,-53
1248,13,77,64,-45,-25,70,13,26,73,0,-33,-53
1249,6,73,66,-40,-30,69,0,40,80,0,-40,-53
1250,0,76,76,-37,-38,76,0,26,66,0,-26,-60
1251,0,73,73,-36,-37,73,-13,26,66,0,-40,-66
1252,0,66,66,-33,-33,66,-6,26,66,-13,-40,-60
1253,0,66,66,-33,-33,66,-13,26,66,-13,-40,-53
1254,-6,66,73,-29,-40,69,-6,20,73,-13,-40,-66
1255,-6,60,66,-26,-37,62,0,26,66,-13,-53,-66
1256,0,64,64,-32,-32,64,6,13,53,-26,-60,-73
1257,0,46,46,-22,-24,46,13,0,40,-40,-66,-80
1258,-9,33,42,-12,-26,37,20,0,33,-40,-73,-80
1259,-6,33,40,-13,-24,36,26,-13,26,-40,-80,-80
1260,-4,40,44,-17,-24,41,26,-13,26,-53,-73,-80
1261,0,40,40,-20,-20,40,26,-13,40,-40,-66,-80
1262,0,40,40,-20,-20,40,26,-6,46,-33,-66,-80
1263,0,46,46,-22,-24,46,40,0,40,-26,-66,-80
1264,-6,42,49,-17,-28,45,46,6,33,-40,-66,-73
1265,0,40,40,-20,-20,40,53,0,26,-40,-66,-66
1266,-6,40,46,-16,-26,42,40,0,26,-40,-66,-86
1267,-6,40,46,-16,-26,42,53,0,26,-40,-66,-80
1268,6,40,33,-22,-13,36,53,-6,40,-40,-66,-93
1269,6,40,33,-22,-13,36,53,-13,40,-40,-66,-80
1270,4,33,29,-18,-13,30,60,-26,33,-40,-73,-93
1271,6,40,33,-22,-13,36,53,-26,40,-40,-66,-93
1272,9,40,30,-24,-10,34,60,-20,33,-33,-66,-86
1273,20,40,20,-29,0,29,66,-40,26,-40,-66,-80
1274,22,36,13,-29,4,24,60,-13,26,-40,-66,-80
1275,26,40,13,-33,6,26,53,0,26,-40,-66,-80
1276,29,46,17,-37,5,32,46,6,33,-40,-60,-80
1277,40,53,13,-46,13,33,40,13,40,-40,-53,-80
1278,24,46,22,-34,0,34,53,20,40,-26,-53,-73
1279,26,40,13,-33,6,26,40,26,40,-40,-53,-66
1280,13,44,30,-28,-9,37,40,13,33,-33,-46,-60
1281,13,40,26,-26,-6,33,40,13,40,-26,-53,-66
1282,6,40,33,-22,-13,36,40,6,33,-46,-53,-66
1283,13,40,26,-26,-6,33,40,0,26,-40,-53,-66
1284,17,30,13,-24,1,21,40,-6,20,-40,-60,-73
1285,13,20,6,-16,2,13,40,-13,26,-40,-66,-80
1286,16,26,10,-21,2,18,40,-6,26,-40,-46,-80
1287,13,26,13,-20,0,20,40,0,26,-40,-53,-80
1288,16,29,13,-22,1,21,40,-6,20,-26,-33,-60
1289,20,33,13,-26,2,22,40,0,13,-26,-40,-66
1290,10,30,20,-20,-5,25,46,-13,20,-26,-46,-73
1291,13,33,20,-22,-4,26,53,-26,26,-26,-53,-80
1292,20,33,13,-26,2,22,53,-33,13,-33,-53,-80
1293,26,33,6,-29,9,20,40,-40,13,-40,-53,-80
1294,20,30,10,-25,4,20,40,-33,6,-40,-60,-80
1295,20,26,6,-22,6,16,40,-26,0,-40,-66,-80
1296,20,26,6,-22,6,16,53,-26,-6,-46,-73,-80
1297,26,26,0,-26,13,13,53,-26,0,-53,-80,-80
1298,36,29,-6,-32,21,10,46,-33,6,-53,-73,-86
1299,33,33,0,-33,16,16,40,-26,13,-53,-66,-93
1300,36,29,-6,-32,21,10,33,-33,0,-53,-66,-93
1301,33,26,-6,-29,20,9,26,-40,0,-53,-66,-93
1302,26,20,-6,-22,16,6,26,-40,13,-53,-86,-93
1303,26,20,-6,-22,16,6,26,-40,0,-53,-80,-93
1304,20,26,6,-22,6,16,33,-46,0,-53,-66,-93
1305,20,20,0,-20,9,9,40,-53,13,-53,-66,-93
1306,20,29,9,-24,5,18,40,-53,13,-53,-73,-93
1307,20,33,13,-26,2,22,40,-53,13,-53,-66,-93
1308,26,30,4,-28,10,17,46,-46,13,-60,-73,-100
1309,20,26,6,-22,6,16,53,-40,13,-66,-80,-106
1310,13,24,10,-18,1,17,53,-40,13,-46,-80,-113
1311,6,26,20,-16,-6,22,53,-40,13,-53,-80,-120
1312,-2,26,29,-12,-16,28,60,-40,26,-60,-73,-113
1313,0,26,26,-13,-13,26,53,-40,40,-66,-66,-106
1314,0,26,26,-13,-13,26,46,-33,40,-66,-66,-106
1315,6,26,20,-16,-6,22,40,-26,40,-66,-66,-106
1316,16,20,4,-17,5,12,53,-46,40,-66,-60,-106
1317,26,20,-6,-22,16,6,40,-40,40,-66,-53,-106
1318,20,22,2,-21,8,12,26,-46,40,-66,-53,-106
1319,26,26,0,-26,13,13,26,-53,40,-66,-53,-93
1320,26,20,-6,-22,16,6,33,-53,33,-66,-60,-113
1321,33,20,-13,-26,22,2,40,-53,26,-66,-66,-106
1322,26,20,-6,-22,16,6,26,-53,26,-66,-66,-106
1323,26,20,-6,-22,16,6,26,-53,26,-80,-66,-106
1324,13,13,0,-13,6,6,33,-60,33,-66,-66,-113
1325,20,20,0,-20,9,9,40,-53,40,-66,-66,-106
1326,22,29,6,-25,8,17,33,-46,26,-66,-60,-100
1327,26,33,6,-29,9,20,26,-40,40,-66,-53,-93
1328,26,37,10,-32,8,24,33,-53,33,-66,-60,-93
1329,20,26,6,-22,6,16,26,-53,26,-66,-66,-93
1330,6,20,13,-13,-4,16,26,-40,26,-73,-66,-100
1331,6,13,6,-9,0,9,26,-53,26,-80,-66,-106
1332,6,10,4,-8,1,6,26,-60,13,-80,-66,-113
1333,6,6,0,-6,2,2,13,-53,13,-80,-66,-120
1334,9,9,0,-9,4,4,20,-53,26,-80,-80,-120
1335,13,13,0,-13,6,6,26,-53,26,-80,-93,-106
1336,10,20,9,-14,0,14,46,-53,33,-60,-73,-100
1337,6,20,13,-13,-4,16,40,-53,40,-66,-66,-93
1338,9,16,6,-12,1,10,33,-40,40,-73,-66,-93
1339,6,26,20,-16,-6,22,40,-40,40,-66,-66,-93
1340,4,20,16,-12,-6,17,40,-46,33,-66,-73,-93
1341,6,20,13,-13,-4,16,40,-53,26,-80,-93,-93
1342,13,26,13,-20,0,20,40,-53,20,-66,-80,-93
1343,6,26,20,-16,-6,22,40,-53,13,-66,-80,-93
1344,6,26,20,-16,-6,22,40,-46,26,-80,-93,-93
1345,6,26,20,-16,-6,22,40,-40,26,-80,-93,-93
1346,4,24,20,-13,-8,21,46,-33,26,-60,-73,-86
1347,0,33,33,-16,-17,33,53,-40,40,-53,-66,-80
1348,6,29,22,-17,-8,25,46,-46,26,-60,-80,-86
1349,6,33,26,-20,-10,29,40,-53,26,-66,-80,-93
1350,-2,30,33,-13,-18,32,40,-46,20,-66,-86,-93
1351,0,26,26,-13,-13,26,40,-40,13,-66,-80,-93
1352,6,33,26,-20,-10,29,46,-33,13,-66,-80,-93
1353,13,33,20,-22,-4,26,53,-26,13,-66,-80,-93
1354,13,36,22,-24,-5,29,53,-26,13,-66,-93,-106
1355,13,40,26,-26,-6,33,53,-26,13,-66,-93,-106
1356,20,36,16,-28,1,25,53,-26,20,-66,-93,-100
1357,20,40,20,-29,0,29,53,-40,26,-66,-93,-93
1358,16,49,33,-32,-9,41,53,-40,26,-60,-86,-86
1359,26,60,33,-42,-4,46,53,-40,26,-53,-80,-80
1360,33,53,20,-42,6,36,53,-33,26,-53,-80,-86
1361,33,53,20,-42,6,36,53,-40,26,-53,-80,-93
1362,20,53,33,-36,-6,42,46,-33,33,-60,-93,-93
1363,6,40,33,-22,-13,36,40,-26,40,-66,-93,-106
1364,4,42,38,-22,-17,40,53,-20,33,-66,-80,-100
1365,0,46,46,-22,-24,46,53,0,26,-53,-80,-93
1366,-4,42,46,-18,-25,44,46,6,33,-60,-86,-93
1367,0,46,46,-22,-24,46,53,0,26,-53,-93,-93
1368,-13,40,53,-13,-33,46,46,-6,20,-60,-93,-93
1369,-13,46,60,-16,-37,53,40,-13,13,-66,-93,-93
1370,-16,53,69,-18,-42,61,40,-6,26,-53,-86,-93
1371,-20,53,73,-16,-46,62,40,0,26,-53,-93,-93
1372,-6,60,66,-26,-37,62,40,-6,26,-53,-86,-93
1373,0,66,66,-33,-33,66,40,-13,26,-53,-80,-93
1374,0,64,64,-32,-32,64,40,-6,20,-53,-80,-86
1375,-6,60,66,-26,-37,62,40,0,0,-66,-93,-93
1376,-2,50,53,-24,-28,52,33,-6,0,-60,-100,-100
1377,-13,40,53,-13,-33,46,26,-13,0,-66,-93,-106
1378,-16,37,53,-10,-34,45,46,-13,6,-60,-93,-113
1379,-20,33,53,-6,-37,42,40,-13,13,-53,-93,-106
1380,-20,40,60,-9,-40,49,40,-13,6,-53,-93,-106
1381,-26,33,60,-2,-44,46,40,-13,13,-53,-93,-106
1382,-13,33,46,-9,-30,40,40,-20,13,-53,-93,-106
1383,-6,46,53,-20,-30,49,53,-13,13,-53,-93,-106
1384,-13,49,62,-17,-38,56,46,-6,20,-53,-86,-106
1385,-6,53,60,-22,-33,56,40,0,26,-53,-80,-106
1386,-2,46,49,-21,-26,48,40,-6,20,-53,-86,-106
1387,-13,53,66,-20,-40,60,40,-13,13,-53,-93,-106
1388,-13,53,66,-20,-40,60,46,-6,0,-53,-93,-100
1389,-26,46,73,-9,-50,60,40,-13,13,-40,-93,-93
1390,-20,46,66,-13,-44,56,46,-13,13,-60,-80,-100
1391,-26,46,73,-9,-50,60,40,-13,13,-53,-80,-93
1392,-26,44,70,-8,-49,57,40,-13,13,-46,-80,-93
1393,-26,40,66,-6,-46,53,40,-13,13,-53,-93,-93
1394,-26,42,69,-8,-48,56,33,-13,13,-60,-93,-93
1395,-26,46,73,-9,-50,60,26,-13,13,-66,-93,-93
1396,-26,49,76,-10,-52,62,26,-20,13,-46,-80,-86
1397,-26,46,73,-9,-50,60,26,-13,13,-53,-80,-80
1398,-26,46,73,-9,-50,60,33,0,20,-53,-73,-80
1399,-20,40,60,-9,-40,49,40,13,13,-53,-66,-80
1400,-20,37,57,-8,-38,46,26,0,13,-46,-80,-80
1401,-26,33,60,-2,-44,46,40,0,13,-40,-80,-80
1402,-20,40,60,-9,-40,49,40,-6,20,-46,-80,-80
1403,-13,40,53,-13,-33,46,40,-13,13,-53,-80,-80
1404,-13,42,56,-14,-34,49,40,-6,13,-53,-80,-80
1405,-13,46,60,-16,-37,53,40,-13,13,-53,-80,-80
1406,-16,33,49,-8,-33,41,40,-13,20,-46,-80,-93
1407,-13,33,46,-9,-30,40,40,-13,26,-40,-80,-80
1408,-17,40,57,-10,-37,48,33,-13,20,-40,-80,-73
1409,-13,40,53,-13,-33,46,40,-13,13,-40,-80,-80
1410,-16,33,49,-8,-33,41,40,-13,13,-46,-80,-86
1411,-20,26,46,-2,-33,36,40,0,13,-53,-80,-93
1412,-22,30,53,-4,-38,41,40,-6,6,-53,-80,-93
1413,-26,26,53,0,-40,40,40,-13,0,-53,-80,-93
1414,-26,26,53,0,-40,40,40,-6,0,-53,-80,-93
1415,-26,26,53,0,-40,40,40,-13,0,-53,-80,-93
1416,-17,36,53,-9,-36,44,46,-20,0,-46,-86,-100
1417,-13,40,53,-13,-33,46,53,-13,0,-40,-80,-93
1418,-20,42,62,-10,-41,52,53,-6,0,-40,-73,-86
1419,-20,46,66,-13,-44,56,53,-13,0,-40,-80,-80
1420,-13,44,57,-14,-36,50,40,-13,0,-40,-80,-93
1421,-13,40,53,-13,-33,46,40,-13,0,-40,-80,-93
1422,-20,33,53,-6,-37,42,46,-13,0,-40,-80,-93
1423,-13,33,46,-9,-30,40,53,-13,0,-40,-80,-93
1424,-20,33,53,-6,-37,42,53,-20,13,-46,-80,-93
1425,-20,33,53,-6,-37,42,53,-26,0,-53,-80,-93
1426,-20,33,53,-6,-37,42,60,-20,0,-53,-80,-93
1427,-26,26,53,0,-40,40,66,-13,0,-53,-80,-93
1428,-26,30,57,-1,-42,44,66,-13,0,-53,-86,-100
1429,-20,26,46,-2,-33,36,66,-13,0,-66,-93,-106
1430,-20,26,46,-2,-33,36,73,-13,6,-66,-86,-100
1431,-20,26,46,-2,-33,36,66,-13,13,-66,-80,-93
1432,-26,29,56,-1,-41,42,66,-20,13,-60,-80,-93
1433,-26,26,53,0,-40,40,53,-26,13,-53,-80,-93
1434,-24,20,44,2,-34,32,40,-26,13,-53,-80,-93
1435,-20,20,40,0,-30,29,26,-26,13,-53,-80,-93
1436,-20,20,40,0,-30,29,26,-26,13,-60,-73,-106
1437,-20,20,40,0,-30,29,26,-40,13,-66,-80,-93
1438,-20,17,37,1,-29,26,20,-26,13,-60,-86,-106
1439,-20,20,40,0,-30,29,13,-26,13,-53,-80,-93
1440,-22,20,42,1,-33,30,20,-46,13,-53,-86,-106
1441,-20,20,40,0,-30,29,40,-40,13,-53,-93,-106
1442,-20,26,46,-2,-33,36,46,-40,13,-60,-86,-106
1443,-20,26,46,-2,-33,36,53,-40,13,-66,-93,-106
1444,-20,30,50,-5,-36,40,46,-40,0,-66,-93,-106
1445,-20,26,46,-2,-33,36,40,-40,0,-66,-93,-106
1446,-17,26,44,-4,-30,34,33,-40,0,-66,-93,-106
1447,-20,26,46,-2,-33,36,26,-40,0,-66,-93,-106
1448,-16,26,42,-5,-29,34,33,-40,0,-66,-93,-106
1449,-20,26,46,-2,-33,36,40,-40,0,-66,-93,-106
1450,-20,29,49,-4,-34,38,40,-40,0,-66,-100,-106
1451,-20,33,53,-6,-37,42,40,-40,0,-80,-106,-106
1452,-20,26,46,-2,-33,36,33,-40,0,-80,-100,-106
1453,-20,33,53,-6,-37,42,40,-40,0,-80,-93,-106
1454,-20,36,56,-8,-38,45,53,-46,-6,-80,-106,-106
1455,-20,40,60,-9,-40,49,53,-40,-13,-80,-106,-106
1456,-24,37,61,-6,-42,49,46,-40,-13,-80,-93,-113
1457,-20,40,60,-9,-40,49,40,-40,-13,-80,-106,-120
1458,-17,40,57,-10,-37,48,40,-33,-13,-86,-100,-120
1459,-13,33,46,-9,-30,40,40,-40,-13,-93,-106,-120
1460,-26,26,53,0,-40,40,33,-46,-20,-93,-100,-120
1461,-26,33,60,-2,-44,46,40,-40,-26,-93,-106,-120
1462,-22,30,53,-4,-38,41,40,-46,-20,-86,-106,-120
1463,-26,26,53,0,-40,40,40,-40,-13,-80,-106,-120
1464,-29,24,53,2,-41,38,26,-40,-6,-80,-106,-113
1465,-26,26,53,0,-40,40,26,-40,0,-93,-106,-106
1466,-30,40,70,-4,-50,54,26,-40,0,-73,-106,-106
1467,-20,53,73,-16,-46,62,26,-40,0,-80,-106,-106
1468,-20,60,80,-20,-50,69,20,-33,0,-73,-113,-126
1469,-6,53,60,-22,-33,56,26,-40,-13,-66,-120,-133
1470,-13,46,60,-16,-37,53,33,-46,-13,-73,-120,-133
1471,-20,46,66,-13,-44,56,40,-53,-13,-80,-120,-133
1472,-29,53,82,-12,-56,68,33,-60,-6,-80,-113,-126
1473,-33,53,86,-9,-60,69,26,-66,0,-80,-106,-120
1474,-42,53,96,-5,-69,74,26,-73,-6,-80,-120,-133
1475,-40,53,93,-6,-66,73,26,-80,-13,-80,-120,-120
1476,-33,57,90,-12,-62,73,40,-73,-20,-80,-120,-126
1477,-26,53,80,-13,-53,66,26,-66,-26,-80,-120,-133
1478,-29,50,80,-10,-54,65,33,-73,-26,-80,-126,-126
1479,-26,46,73,-9,-50,60,40,-80,-26,-80,-120,-120
1480,-24,50,74,-13,-49,62,40,-66,-26,-73,-113,-126
1481,-26,40,66,-6,-46,53,40,-53,-26,-66,-120,-133
1482,-26,49,76,-10,-52,62,33,-53,-26,-66,-120,-133
1483,-26,46,73,-9,-50,60,26,-53,-26,-66,-120,-133
1484,-20,37,57,-8,-38,46,26,-53,-26,-73,-126,-133
1485,-20,40,60,-9,-40,49,26,-53,-26,-80,-133,-133
1486,-22,46,69,-12,-46,57,33,-73,-26,-80,-126,-133
1487,-26,46,73,-9,-50,60,40,-66,-26,-80,-120,-133
1488,-24,42,66,-9,-45,54,40,-66,-20,-66,-120,-126
1489,-26,33,60,-2,-44,46,40,-66,-13,-66,-120,-120
1490,-24,40,64,-8,-44,52,40,-66,-20,-73,-120,-120
1491,-20,40,60,-9,-40,49,40,-66,-26,-66,-120,-120
1492,-22,42,65,-9,-44,53,33,-66,-33,-80,-120,-120
1493,-26,46,73,-9,-50,60,26,-66,-40,-80,-120,-133
1494,-26,46,73,-9,-50,60,26,-73,-33,-73,-120,-120
1495,-26,40,66,-6,-46,53,26,-66,-26,-66,-120,-120
1496,-29,40,69,-5,-49,54,26,-73,-26,-66,-120,-120
1497,-26,40,66,-6,-46,53,26,-80,-26,-66,-120,-120
1498,-26,46,73,-9,-50,60,26,-80,-26,-73,-120,-133
1499,-33,40,73,-2,-53,56,26,-80,-26,-80,-120,-133
1500,-33,33,66,0,-50,49,33,-80,-26,-80,-120,-133
1501,-26,40,66,-6,-46,53,40,-80,-26,-80,-120,-133
1502,-26,40,66,-6,-46,53,40,-86,-26,-73,-120,-113
1503,-26,40,66,-6,-46,53,40,-93,-26,-66,-120,-120
1504,-26,42,69,-8,-48,56,40,-86,-26,-66,-120,-126
1505,-33,46,80,-6,-57,62,40,-80,-26,-66,-120,-133
1506,-33,53,86,-9,-60,69,33,-80,-26,-66,-120,-120
1507,-33,53,86,-9,-60,69,26,-80,-26,-66,-120,-133
1508,-33,50,84,-8,-58,66,26,-80,-26,-66,-120,-120
1509,-33,46,80,-6,-57,62,26,-80,-26,-66,-133,-120
1510,-30,46,77,-8,-54,61,26,-73,-26,-73,-120,-133
1511,-33,46,80,-6,-57,62,26,-66,-26,-66,-120,-120
1512,-30,46,77,-8,-54,61,26,-66,-33,-60,-113,-120
1513,-26,40,66,-6,-46,53,26,-66,-40,-66,-120,-120
1514,-26,37,64,-5,-45,50,20,-73,-40,-73,-126,-120
1515,-20,40,60,-9,-40,49,26,-80,-40,-80,-120,-120
1516,-17,46,64,-14,-41,54,26,-80,-40,-66,-120,-113
1517,-20,46,66,-13,-44,56,26,-80,-40,-66,-120,-120
1518,-22,37,60,-6,-41,48,26,-80,-33,-66,-120,-120
1519,-26,33,60,-2,-44,46,26,-80,-40,-80,-120,-120
1520,-26,30,57,-1,-42,44,20,-86,-40,-80,-120,-133
1521,-33,26,60,4,-46,42,13,-93,-40,-80,-120,-133
1522,-36,33,69,1,-53,50,0,-93,-40,-80,-120,-126
1523,-40,26,66,6,-53,46,0,-93,-40,-80,-133,-133
1524,-33,24,57,5,-45,40,0,-86,-40,-80,-120,-120
1525,-33,20,53,6,-44,36,0,-93,-40,-80,-120,-120
1526,-26,29,56,-1,-41,42,0,-80,-40,-80,-113,-113
1527,-20,26,46,-2,-33,36,0,-66,-40,-80,-106,-120
1528,-13,26,40,-6,-26,33,6,-66,-46,-66,-113,-113
1529,-20,26,46,-2,-33,36,13,-66,-53,-80,-120,-120
1530,-17,24,41,-2,-29,32,13,-73,-53,-80,-120,-113
1531,-13,20,33,-2,-24,26,13,-80,-53,-80,-120,-106
1532,-13,20,33,-2,-24,26,13,-80,-53,-86,-133,-113
1533,-13,20,33,-2,-24,26,13,-80,-53,-93,-120,-120
1534,-10,20,30,-4,-21,25,13,-73,-60,-86,-113,-113
1535,-13,20,33,-2,-24,26,13,-66,-66,-93,-106,-106
1536,-22,16,38,4,-30,26,6,-66,-53,-100,-106,-106
1537,-26,20,46,4,-37,33,0,-66,-66,-106,-106,-120
1538,-26,13,40,6,-33,26,13,-73,-73,-106,-113,-113
1539,-26,6,33,10,-30,20,13,-66,-66,-106,-120,-106
1540,-26,9,36,9,-32,22,13,-73,-60,-106,-120,-113
1541,-26,13,40,6,-33,26,13,-66,-53,-106,-120,-120
1542,-29,4,33,13,-32,18,20,-66,-60,-100,-120,-120
1543,-33,0,33,17,-33,16,26,-66,-53,-93,-120,-120
1544,-24,2,26,10,-25,14,13,-66,-53,-93,-120,-126
1545,-20,6,26,6,-24,16,13,-66,-53,-93,-120,-120
1546,-26,6,33,10,-30,20,13,-80,-53,-93,-126,-126
1547,-26,6,33,10,-30,20,13,-80,-53,-93,-133,-133
1548,-26,9,36,9,-32,22,0,-93,-53,-100,-113,-120
1549,-40,6,46,17,-44,26,13,-80,-53,-93,-106,-120
1550,-26,-2,24,14,-25,10,13,-93,-60,-93,-113,-113
1551,-33,0,33,17,-33,16,0,-80,-66,-106,-120,-120
1552,-33,9,42,12,-38,25,6,-86,-53,-86,-120,-126
1553,-26,6,33,10,-30,20,13,-80,-53,-93,-120,-120
1554,-20,2,22,9,-21,12,13,-66,-46,-93,-120,-113
1555,-20,13,33,4,-26,22,13,-80,-53,-93,-120,-120
1556,-17,8,25,5,-21,16,13,-86,-53,-93,-120,-120
1557,-13,6,20,4,-17,13,13,-93,-53,-93,-120,-120
1558,-20,6,26,6,-24,16,13,-80,-60,-86,-120,-113
1559,-20,0,20,10,-20,9,13,-93,-53,-93,-120,-106
1560,-17,6,24,5,-21,14,26,-93,-53,-93,-113,-113
1561,-13,13,26,0,-20,20,26,-93,-53,-93,-106,-106
1562,-16,6,22,5,-20,14,20,-80,-53,-86,-113,-100
1563,-20,0,20,10,-20,9,13,-93,-53,-106,-120,-93
1564,-26,0,26,13,-26,13,20,-93,-40,-106,-120,-106
1565,-20,0,20,10,-20,9,26,-93,-40,-106,-120,-106
1566,-20,2,22,9,-21,12,26,-100,-46,-100,-120,-86
1567,-20,0,20,10,-20,9,26,-106,-40,-93,-120,-93
1568,-20,6,26,6,-24,16,46,-106,-40,-100,-120,-80
1569,-20,6,26,6,-24,16,40,-106,-40,-106,-120,-93
1570,-20,6,26,6,-24,16,40,-100,-53,-106,-120,-100
1571,-13,6,20,4,-17,13,40,-120,-40,-93,-120,-93
1572,-4,20,24,-8,-14,21,33,-106,-33,-93,-120,-86
1573,0,13,13,-6,-6,13,13,-106,-26,-106,-120,-93
1574,6,10,4,-8,1,6,26,-126,-40,-93,-120,-100
1575,-6,6,13,0,-10,9,26,-120,-26,-106,-120,-93
1576,-13,13,26,0,-20,20,13,-113,-26,-93,-113,-93
1577,-13,20,33,-2,-24,26,13,-106,-26,-93,-106,-93
1578,-13,13,26,0,-20,20,6,-93,-26,-93,-106,-93
1579,-13,13,26,0,-20,20,13,-80,-26,-93,-106,-93
1580,-10,13,24,-1,-17,18,6,-86,-33,-100,-113,-93
1581,0,6,6,-2,-4,6,0,-93,-40,-106,-120,-93
1582,6,13,6,-9,0,9,0,-93,-33,-100,-120,-93
1583,6,6,0,-6,2,2,0,-93,-26,-93,-120,-93
1584,4,20,16,-12,-6,17,0,-93,-26,-93,-120,-93
1585,0,20,20,-9,-10,20,0,-93,-26,-93,-106,-93
1586,0,10,10,-5,-5,10,0,-86,-26,-100,-120,-93
1587,0,13,13,-6,-6,13,0,-80,-26,-106,-120,-106
1588,-13,13,26,0,-20,20,0,-80,-40,-100,-120,-106
1589,-13,13,26,0,-20,20,0,-80,-40,-93,-120,-106
1590,-10,13,24,-1,-17,18,13,-73,-40,-93,-120,-100
1591,-13,13,26,0,-20,20,13,-66,-26,-93,-120,-93
1592,-17,9,26,4,-22,17,13,-73,-26,-93,-120,-93
1593,-6,13,20,-2,-13,16,13,-80,-40,-93,-120,-93
1594,-13,16,29,-1,-21,22,6,-86,-40,-100,-120,-100
1595,-13,13,26,0,-20,20,0,-93,-40,-106,-120,-93
1596,-13,9,22,2,-18,16,0,-80,-40,-100,-120,-86
1597,-13,13,26,0,-20,20,0,-80,-40,-106,-120,-93
1598,-10,10,21,0,-16,16,6,-86,-40,-113,-120,-100
1599,-6,13,20,-2,-13,16,13,-80,-40,-106,-120,-106
1600,-4,13,17,-4,-10,14,20,-86,-46,-120,-120,-93
1601,-13,13,26,0,-20,20,26,-93,-53,-106,-120,-93
1602,-9,10,20,0,-14,14,26,-106,-53,-106,-120,-93
1603,-6,13,20,-2,-13,16,26,-120,-53,-106,-120,-93
1604,-4,20,24,-8,-14,21,26,-113,-40,-106,-120,-86
1605,0,13,13,-6,-6,13,26,-120,-53,-106,-120,-80
1606,-4,13,17,-4,-10,14,33,-113,-60,-106,-120,-86
1607,0,13,13,-6,-6,13,40,-106,-66,-106,-106,-80
1608,-2,10,13,-4,-8,12,26,-100,-53,-106,-120,-93
1609,0,13,13,-6,-6,13,26,-93,-66,-106,-120,-93
1610,0,13,13,-6,-6,13,26,-86,-53,-100,-100,-73
1611,0,20,20,-9,-10,20,26,-80,-53,-93,-106,-80
1612,0,20,20,-9,-10,20,26,-80,-53,-93,-113,-80
1613,6,26,20,-16,-6,22,26,-80,-53,-93,-106,-80
1614,10,24,13,-17,-1,18,20,-80,-46,-86,-120,-86
1615,0,26,26,-13,-13,26,26,-80,-40,-80,-106,-80
1616,6,20,13,-13,-4,16,20,-80,-40,-86,-106,-80
1617,6,20,13,-13,-4,16,13,-80,-40,-80,-106,-80
1618,0,20,20,-9,-10,20,13,-80,-46,-93,-106,-80
1619,13,20,6,-16,2,13,13,-80,-40,-80,-106,-80
1620,-2,20,22,-8,-13,21,20,-73,-33,-80,-106,-73
1621,-20,20,40,0,-30,29,26,-80,-26,-80,-93,-66
1622,-22,26,49,-1,-36,37,26,-80,-20,-66,-93,-66
1623,-26,33,60,-2,-44,46,26,-80,-13,-66,-93,-66
1624,-22,33,56,-5,-40,44,40,-86,-20,-66,-93,-73
1625,-20,33,53,-6,-37,42,40,-93,-13,-66,-93,-80
1626,-20,36,56,-8,-38,45,33,-93,-13,-60,-93,-86
1627,-26,40,66,-6,-46,53,26,-80,-13,-53,-93,-93
1628,-17,46,64,-14,-41,54,33,-93,-13,-60,-86,-80
1629,-20,40,60,-9,-40,49,26,-80,-13,-66,-80,-93
1630,-20,46,66,-13,-44,56,40,-73,-6,-66,-86,-80
1631,-20,46,66,-13,-44,56,40,-80,-26,-66,-93,-80
1632,-10,44,54,-16,-33,49,46,-80,-13,-53,-93,-100
1633,-13,46,60,-16,-37,53,53,-80,-13,-53,-93,-93
1634,-4,40,44,-17,-24,41,46,-60,-20,-46,-93,-100
1635,-6,33,40,-13,-24,36,40,-66,-26,-40,-93,-106
1636,-16,36,52,-9,-34,44,46,-66,-33,-53,-100,-100
1637,-20,40,60,-9,-40,49,53,-66,-26,-53,-106,-106
1638,-20,30,50,-5,-36,40,46,-66,-26,-46,-100,-100
1639,-26,26,53,0,-40,40,40,-66,-26,-40,-93,-93
1640,-20,36,56,-8,-38,45,40,-66,-26,-40,-93,-93
1641,-13,40,53,-13,-33,46,40,-66,-26,-40,-93,-93
1642,-13,30,44,-8,-29,37,40,-66,-26,-40,-86,-93
1643,-13,26,40,-6,-26,33,40,-66,-26,-26,-80,-93
1644,-10,40,50,-14,-30,45,40,-53,-13,-33,-73,-80
1645,0,46,46,-22,-24,46,40,-53,-13,-40,-66,-80
1646,6,56,49,-30,-21,52,46,-60,-6,-46,-73,-86
1647,13,66,53,-40,-20,60,53,-66,0,-40,-66,-80
1648,13,64,50,-38,-18,57,46,-60,-6,-40,-73,-80
1649,20,73,53,-46,-17,62,40,-53,-13,-40,-66,-80
1650,10,80,69,-45,-29,74,46,-53,-6,-46,-66,-66
1651,13,80,66,-46,-26,73,53,-53,-13,-40,-66,-66
1652,20,84,64,-52,-22,73,53,-53,-20,-46,-60,-66
1653,20,86,66,-53,-24,76,53,-53,-26,-53,-66,-66
1654,26,89,62,-57,-18,76,40,-60,-26,-46,-60,-66
1655,33,86,53,-60,-10,69,26,-66,-26,-53,-66,-66
1656,33,86,53,-60,-10,69,26,-60,-20,-53,-66,-60
1657,40,86,46,-62,-4,66,13,-66,-26,-53,-66,-53
1658,40,86,46,-62,-4,66,13,-60,-40,-66,-66,-66
1659,33,86,53,-60,-10,69,13,-66,-40,-66,-80,-66
1660,30,89,58,-60,-14,73,20,-60,-33,-60,-73,-66
1661,20,93,73,-56,-26,82,26,-53,-40,-66,-66,-66
1662,26,90,64,-58,-18,77,26,-66,-33,-66,-60,-66
1663,26,86,60,-56,-17,73,26,-80,-26,-66,-53,-66
1664,26,77,50,-52,-12,64,6,-93,-33,-60,-73,-73
1665,26,66,40,-46,-6,53,13,-106,-53,-66,-80,-80
1666,22,69,46,-45,-12,57,20,-106,-40,-66,-80,-80
1667,20,66,46,-42,-13,56,13,-106,-53,-66,-80,-80
1668,17,66,49,-41,-16,57,13,-100,-53,-80,-80,-80
1669,13,60,46,-36,-17,53,13,-106,-66,-80,-93,-93
1670,13,49,36,-30,-12,42,6,-106,-73,-86,-93,-93
1671,6,46,40,-26,-17,42,0,-106,-80,-93,-93,-93
1672,6,49,42,-28,-18,45,-20,-106,-80,-106,-100,-106
1673,6,46,40,-26,-17,42,-26,-93,-80,-120,-93,-106
1674,10,46,36,-28,-13,41,-13,-106,-73,-100,-93,-106
1675,13,46,33,-29,-10,40,-13,-106,-80,-93,-93,-106
1676,20,46,26,-33,-4,36,-20,-100,-80,-93,-80,-93
1677,26,46,20,-36,2,33,-13,-93,-80,-80,-80,-93
1678,29,46,17,-37,5,32,-20,-86,-86,-86,-80,-93
1679,33,40,6,-36,13,22,-26,-93,-80,-93,-80,-93
1680,20,44,24,-32,-2,33,-26,-93,-86,-80,-86,-86
1681,20,40,20,-29,0,29,-13,-80,-80,-80,-80,-80
1682,29,49,20,-38,4,34,-6,-80,-66,-73,-80,-80
1683,33,46,13,-40,9,29,0,-66,-66,-80,-93,-80
1684,40,40,0,-40,20,20,-6,-86,-66,-80,-93,-73
1685,33,33,0,-33,16,16,0,-93,-66,-80,-93,-80
1686,30,36,5,-33,12,20,0,-93,-73,-86,-100,-80
1687,26,33,6,-29,9,20,0,-106,-66,-80,-93,-80
1688,26,29,2,-28,12,16,6,-100,-80,-86,-106,-66
1689,26,33,6,-29,9,20,0,-93,-80,-80,-106,-66
1690,24,26,2,-25,10,14,0,-100,-80,-93,-106,-73
1691,13,26,13,-20,0,20,0,-93,-80,-93,-106,-80
1692,4,24,20,-13,-8,21,13,-86,-86,-93,-100,-73
1693,-6,20,26,-6,-17,22,13,-80,-93,-93,-93,-80
1694,-9,17,26,-4,-18,21,0,-86,-93,-93,-106,-86
1695,-6,13,20,-2,-13,16,0,-93,-93,-93,-106,-93
1696,-6,10,17,-1,-12,13,6,-100,-93,-93,-106,-93
1697,-6,13,20,-2,-13,16,0,-106,-93,-93,-106,-93
1698,-6,16,22,-4,-14,18,-6,-106,-93,-93,-106,-100
1699,-6,13,20,-2,-13,16,-13,-106,-93,-93,-106,-106
1700,-9,13,22,-1,-16,17,-13,-106,-86,-93,-106,-106
1701,-20,13,33,4,-26,22,-13,-106,-80,-93,-106,-106
1702,-16,4,20,6,-18,12,-13,-106,-86,-93,-106,-106
1703,-33,-6,26,20,-30,9,-13,-106,-93,-93,-106,-106
1704,-40,-4,36,22,-38,16,-13,-100,-93,-100,-106,-100
1705,-53,-6,46,30,-50,20,0,-106,-93,-93,-106,-93
1706,-53,-9,44,32,-49,17,0,-106,-93,-100,-113,-100
1707,-53,-13,40,33,-46,13,0,-106,-93,-106,-120,-106
1708,-46,-6,40,26,-44,16,0,-113,-93,-106,-120,-106
1709,-40,-13,26,26,-33,6,0,-120,-93,-120,-120,-106
1710,-37,-13,24,25,-30,5,0,-120,-93,-106,-120,-106
1711,-33,-6,26,20,-30,9,0,-120,-93,-106,-120,-106
1712,-40,-9,30,25,-36,10,0,-126,-100,-106,-126,-113
1713,-40,-6,33,24,-37,13,0,-133,-106,-106,-133,-120
1714,-33,-6,26,20,-30,9,0,-126,-106,-106,-133,-120
1715,-40,-6,33,24,-37,13,0,-133,-120,-120,-133,-120
1716,-46,-16,30,32,-38,6,6,-140,-106,-120,-133,-120
1717,-60,-20,40,40,-50,9,13,-146,-106,-120,-133,-120
1718,-62,-10,52,37,-57,20,6,-133,-100,-126,-126,-113
1719,-60,-13,46,37,-53,16,0,-120,-93,-133,-120,-106
1720,-50,-10,40,30,-45,14,0,-120,-93,-133,-120,-120
1721,-33,-13,20,24,-26,2,0,-120,-106,-133,-133,-120
1722,-29,-9,20,20,-25,5,0,-120,-106,-133,-133,-120
1723,-26,-6,20,17,-24,6,-13,-120,-106,-133,-133,-120
1724,-26,-6,20,17,-24,6,-13,-120,-106,-133,-133,-113
1725,-26,-6,20,17,-24,6,-13,-120,-106,-146,-133,-106
1726,-42,-20,22,32,-33,1,-13,-126,-113,-133,-133,-106
1727,-53,-26,26,40,-40,0,-13,-133,-120,-133,-133,-106
1728,-57,-29,28,44,-42,-1,0,-126,-113,-133,-133,-100
1729,-46,-33,13,40,-30,-10,0,-133,-106,-133,-133,-106
1730,-40,-36,4,38,-22,-16,0,-133,-106,-133,-126,-106
1731,-33,-40,-6,37,-13,-24,0,-133,-106,-133,-120,-106
1732,-36,-46,-10,41,-13,-29,-6,-140,-106,-133,-133,-106
1733,-40,-46,-6,44,-17,-26,0,-133,-106,-133,-120,-106
1734,-37,-37,0,37,-18,-18,0,-133,-106,-126,-120,-106
1735,-40,-40,0,40,-20,-20,13,-133,-106,-120,-120,-106
1736,-46,-40,6,44,-26,-17,20,-126,-106,-126,-120,-106
1737,-46,-40,6,44,-26,-17,26,-120,-106,-133,-120,-106
1738,-56,-36,20,46,-38,-8,26,-120,-113,-126,-120,-113
1739,-60,-46,13,53,-37,-17,26,-120,-120,-120,-120,-106
1740,-66,-56,10,61,-38,-22,33,-106,-120,-120,-113,-100
1741,-73,-60,13,66,-44,-24,40,-106,-120,-120,-106,-106
1742,-64,-56,8,60,-36,-24,40,-113,-120,-126,-113,-106
1743,-60,-53,6,57,-33,-24,40,-120,-120,-133,-120,-106
1744,-60,-50,9,56,-34,-21,40,-113,-113,-126,-126,-113
1745,-60,-53,6,57,-33,-24,40,-106,-106,-120,-120,-106
1746,-62,-49,13,56,-38,-18,40,-113,-113,-113,-113,-106
1747,-60,-60,0,60,-30,-30,40,-120,-120,-106,-106,-106
1748,-73,-57,16,65,-45,-21,33,-113,-113,-106,-106,-100
1749,-86,-53,33,70,-60,-10,40,-120,-106,-106,-106,-93
1750,-70,-50,20,61,-45,-16,40,-113,-113,-106,-106,-100
1751,-73,-53,20,64,-46,-17,26,-106,-120,-106,-106,-106
1752,-66,-53,13,60,-40,-20,26,-100,-120,-100,-100,-100
1753,-66,-53,13,60,-40,-20,26,-93,-120,-93,-93,-93
1754,-66,-56,10,61,-38,-22,33,-100,-106,-106,-106,-106
1755,-66,-60,6,64,-37,-26,26,-93,-93,-106,-106,-106
1756,-70,-60,10,65,-41,-25,33,-86,-113,-106,-106,-106
1757,-60,-53,6,57,-33,-24,26,-93,-106,-106,-106,-106
1758,-60,-56,4,58,-32,-26,20,-100,-106,-106,-100,-106
1759,-53,-60,-6,57,-24,-33,26,-106,-106,-106,-106,-106
1760,-57,-53,4,56,-30,-25,26,-100,-93,-100,-100,-106
1761,-53,-46,6,50,-30,-20,40,-106,-93,-93,-106,-106
1762,-50,-33,17,42,-34,-8,33,-93,-60,-73,-106,-106
1763,-60,-13,46,37,-53,16,40,-80,-40,-53,-93,-106
1764,-66,-10,56,38,-61,22,66,-66,0,-33,-93,-113
1765,-86,6,93,40,-90,49,93,-40,26,0,-80,-106
1766,-102,22,125,40,-114,73,106,-13,80,40,-60,-106
1767,-120,40,160,40,-140,100,133,13,120,66,-40,-106
1768,-126,62,189,32,-158,125,160,20,166,93,-33,-100
1769,-133,80,213,26,-173,146,173,26,186,133,-13,-93
1770,-140,84,224,28,-182,153,186,60,220,153,-6,-100
1771,-146,86,233,30,-190,160,200,93,253,186,26,-93
1772,-142,97,240,22,-192,168,206,133,273,220,53,-86
1773,-146,100,246,24,-197,173,200,173,280,240,80,-66
1774,-137,116,253,10,-196,184,213,213,313,293,126,-46
1775,-113,133,246,-9,-180,189,213,240,333,333,160,-13
1776,-90,144,234,-26,-162,189,206,273,360,373,220,20
1777,-80,166,246,-42,-164,206,200,320,400,426,280,66
1778,-70,180,250,-54,-161,214,200,380,433,486,333,100
1779,-46,193,240,-73,-144,216,186,453,480,560,400,146
1780,-20,209,229,-94,-125,218,166,520,506,613,466,193
1781,13,213,200,-113,-93,206,146,600,533,693,533,266
1782,62,213,150,-137,-44,181,140,660,540,713,580,320
1783,113,213,100,-162,6,156,120,720,533,746,640,386
1784,169,222,53,-196,57,137,80,773,520,773,706,460
1785,226,240,13,-233,106,126,26,773,466,786,773,533
1786,269,273,4,-270,132,138,-46,740,426,793,826,633
1787,306,306,0,-306,153,153,-106,693,373,786,880,720
1788,337,326,-10,-332,173,157,-166,626,306,786,946,813
1789,366,373,6,-369,180,189,-240,560,266,786,1013,920
1790,402,413,10,-408,196,212,-306,433,200,780,1060,993
1791,426,460,33,-442,196,246,-373,266,120,733,1093,1093
1792,446,504,57,-474,194,280,-433,126,60,706,1140,1166
1793,466,546,80,-506,193,313,-506,-13,0,680,1173,1240
1794,493,590,97,-541,197,344,-573,-166,-66,646,1213,1306
1795,526,620,93,-573,216,356,-666,-293,-160,626,1266,1386
1796,546,660,113,-602,216,386,-726,-393,-240,606,1306,1460
1797,560,673,113,-616,222,393,-786,-493,-320,573,1333,1520
1798,586,646,60,-616,262,353,-820,-606,-420,500,1293,1553
1799,606,600,-6,-602,306,296,-853,-733,-546,360,1200,1506
1800,622,500,-122,-561,372,188,-873,-886,-706,180,1013,1380
1801,600,360,-240,-480,420,60,-853,-1066,-893,-80,746,1213
1802,560,242,-317,-401,438,-37,-853,-1160,-1013,-260,500,1060
1803,533,120,-413,-326,473,-146,-866,-1266,-1146,-453,293,893
1804,509,49,-460,-278,484,-205,-873,-1366,-1206,-553,153,773
1805,480,-13,-493,-233,486,-253,-880,-1480,-1320,-693,0,640
1806,413,-80,-493,-166,453,-286,-880,-1553,-1353,-793,-140,486
1807,346,-126,-473,-109,409,-300,-853,-1640,-1400,-880,-280,360
1808,290,-186,-477,-52,384,-332,-860,-1706,-1426,-953,-393,226
1809,240,-233,-473,-2,356,-353,-840,-1760,-1466,-1040,-506,93
1810,166,-270,-437,52,301,-354,-800,-1813,-1480,-1126,-633,-53
1811,80,-326,-406,124,242,-366,-760,-1906,-1506,-1253,-800,-240
1812,40,-393,-433,177,236,-413,-733,-1953,-1566,-1380,-953,-353
1813,13,-453,-466,220,240,-460,-706,-1973,-1600,-1453,-1040,-466
1814,-26,-482,-456,254,214,-469,-700,-1960,-1613,-1480,-1080,-526
1815,-66,-513,-446,290,189,-480,-666,-1906,-1600,-1480,-1093,-546
1816,-77,-540,-462,309,192,-501,-626,-1833,-1573,-1466,-1100,-566
1817,-86,-560,-473,324,193,-517,-573,-1746,-1533,-1466,-1106,-600
1818,-100,-577,-477,338,188,-528,-526,-1653,-1473,-1446,-1113,-613
1819,-126,-573,-446,350,160,-510,-466,-1560,-1413,-1400,-1106,-640
1820,-149,-586,-437,368,144,-512,-446,-1486,-1360,-1360,-1086,-626
1821,-173,-593,-420,384,122,-506,-413,-1426,-1320,-1333,-1066,-640
1822,-206,-593,-386,400,89,-490,-393,-1360,-1266,-1280,-1033,-653
1823,-220,-593,-373,406,76,-484,-373,-1306,-1213,-1226,-1000,-653
1824,-233,-580,-346,406,56,-464,-380,-1246,-1180,-1186,-980,-640
1825,-240,-566,-326,404,42,-446,-386,-1200,-1133,-1146,-933,-626
1826,-229,-533,-304,381,37,-418,-373,-1140,-1080,-1080,-900,-600
1827,-226,-506,-280,366,26,-393,-373,-1080,-1026,-1013,-840,-573
1828,-220,-486,-266,353,22,-377,-373,-1006,-980,-966,-800,-526
1829,-213,-466,-253,340,20,-360,-360,-933,-933,-920,-746,-506
1830,-200,-457,-257,329,28,-357,-346,-893,-906,-873,-720,-493
1831,-193,-446,-253,320,29,-350,-333,-840,-866,-840,-693,-480
1832,-190,-433,-242,312,25,-338,-326,-780,-806,-793,-653,-453
1833,-180,-420,-240,300,29,-330,-306,-720,-773,-733,-613,-440
1834,-166,-397,-230,282,32,-314,-293,-666,-740,-693,-580,-406
1835,-166,-373,-206,270,20,-290,-266,-613,-693,-640,-546,-386
1836,-166,-353,-186,260,9,-270,-233,-553,-626,-593,-500,-366
1837,-153,-340,-186,246,16,-264,-213,-506,-586,-546,-466,-360
1838,-133,-313,-180,224,22,-246,-200,-486,-560,-533,-446,-346
1839,-120,-293,-173,206,26,-233,-173,-453,-520,-493,-413,-333
1840,-109,-280,-170,194,30,-225,-153,-406,-500,-466,-393,-320
1841,-100,-260,-160,180,29,-210,-133,-373,-466,-440,-373,-306
1842,-106,-226,-120,166,6,-173,-100,-346,-433,-400,-340,-280
1843,-106,-206,-100,157,-4,-153,-80,-306,-400,-373,-320,-266
1844,-93,-184,-90,138,-1,-137,-66,-253,-340,-326,-293,-240
1845,-80,-166,-86,124,2,-126,-26,-200,-306,-293,-266,-226
1846,-80,-137,-57,109,-12,-97,-13,-153,-280,-266,-233,-206
1847,-73,-120,-46,97,-13,-84,0,-120,-240,-226,-200,-186
1848,-60,-106,-46,84,-6,-77,0,-86,-226,-213,-193,-186
1849,-46,-93,-46,70,0,-70,0,-66,-200,-200,-173,-186
1850,-36,-77,-41,57,2,-60,0,-40,-186,-173,-166,-166
1851,-40,-60,-20,50,-10,-40,13,-26,-160,-146,-160,-146
1852,-46,-37,9,42,-28,-14,6,-6,-140,-140,-133,-146
1853,-40,-20,20,30,-30,0,13,0,-120,-120,-120,-133
1854,-44,-13,30,29,-37,8,13,13,-120,-106,-113,-120
1855,-40,0,40,20,-40,20,13,26,-106,-93,-106,-120
1856,-37,10,48,13,-42,29,20,33,-100,-86,-86,-106
1857,-40,20,60,10,-50,40,26,40,-93,-80,-80,-106
1858,-40,30,70,5,-56,50,33,40,-80,-60,-66,-93
1859,-46,40,86,4,-66,62,40,53,-66,-40,-53,-93
1860,-46,53,100,-2,-73,76,26,53,-53,-46,-53,-80
1861,-46,60,106,-6,-77,82,26,53,-53,-40,-40,-80
1862,-46,66,113,-9,-80,89,26,53,-40,-40,-46,-73
1863,-40,73,113,-16,-77,93,26,53,-40,-26,-40,-80
1864,-42,77,120,-17,-81,98,40,60,-26,-33,-40,-86
1865,-40,80,120,-20,-80,100,40,66,-26,-26,-40,-80
1866,-42,84,126,-20,-85,105,33,86,-33,-33,-26,-80
1867,-46,86,133,-20,-90,109,26,93,-26,-26,-26,-80
1868,-46,84,130,-18,-89,106,40,86,-26,-20,-33,-66
1869,-46,86,133,-20,-90,109,40,93,-13,-13,-40,-80
1870,-37,93,130,-28,-84,112,46,93,-13,-13,-40,-60
1871,-33,93,126,-29,-80,109,53,106,-13,-13,-40,-66
1872,-42,93,136,-25,-89,114,53,113,-13,0,-46,-53
1873,-40,100,140,-29,-90,120,53,120,0,0,-40,-66
1874,-40,100,140,-29,-90,120,40,106,0,0,-40,-53
1875,-40,106,146,-33,-93,126,40,106,0,13,-40,-66
1876,-40,106,146,-33,-93,126,40,113,13,20,-33,-46
1877,-40,106,146,-33,-93,126,40,120,26,26,-26,-40
1878,-40,116,156,-37,-98,136,33,140,13,40,-6,-33
1879,-40,126,166,-42,-104,146,53,133,26,40,0,-26
1880,-26,129,156,-50,-92,142,40,126,26,40,-6,-40
1881,-13,133,146,-60,-80,140,40,133,26,40,0,-40
1882,-16,140,156,-61,-86,148,33,120,33,33,-6,-40
1883,-20,140,160,-60,-90,149,26,133,26,40,-13,-40
1884,-16,140,156,-61,-86,148,40,140,33,40,-6,-33
1885,-26,140,166,-56,-97,153,53,146,40,40,0,-26
1886,-29,140,169,-54,-100,154,33,140,40,26,-6,-40
1887,-33,140,173,-53,-104,156,26,133,40,26,-13,-40
1888,-26,140,166,-56,-97,153,40,126,40,33,0,-33
1889,-26,146,173,-60,-100,160,40,120,40,40,0,-26
1890,-33,142,176,-54,-105,158,40,133,60,40,-6,-33
1891,-33,146,180,-56,-106,162,40,133,53,40,-13,-40
1892,-24,146,170,-61,-97,158,40,126,46,40,-13,-40
1893,-13,146,160,-66,-86,153,40,120,53,40,-13,-40
1894,-9,149,158,-69,-84,153,46,146,53,60,6,-33
1895,-20,153,173,-66,-97,162,40,160,53,66,13,-26
1896,-24,150,174,-62,-100,162,33,166,46,60,13,-33
1897,-20,153,173,-66,-97,162,26,160,40,53,26,-26
1898,-24,162,186,-69,-105,174,33,160,53,60,26,-26
1899,-20,166,186,-73,-104,176,40,160,53,53,26,-26
1900,-16,157,173,-70,-94,165,40,166,53,60,20,-33
1901,-26,153,180,-62,-104,166,40,173,53,66,26,-26
1902,-22,160,182,-68,-102,170,26,173,60,66,40,-26
1903,-20,160,180,-69,-100,169,40,173,66,80,53,-26
1904,-26,166,193,-69,-110,180,46,173,73,80,46,-13
1905,-26,160,186,-66,-106,173,53,173,80,80,53,-13
1906,-22,164,186,-70,-105,174,53,193,80,86,60,-6
1907,-26,160,186,-66,-106,173,40,200,80,93,66,0
1908,-26,153,180,-62,-104,166,40,193,80,86,53,0
1909,-26,153,180,-62,-104,166,40,200,80,93,53,0
1910,-20,156,176,-68,-98,165,46,193,86,86,53,-6
1911,-13,160,173,-73,-93,166,53,186,80,80,53,-13
1912,-6,160,166,-76,-86,162,53,193,86,86,60,-13
1913,-13,160,173,-73,-93,166,53,186,93,93,66,0
1914,-16,150,166,-66,-92,158,46,180,80,93,60,-6
1915,-20,146,166,-62,-93,156,40,186,80,93,53,-13
1916,-22,140,162,-58,-93,150,46,193,100,106,66,-6
1917,-26,140,166,-56,-97,153,40,200,106,106,66,13
1918,-20,146,166,-62,-93,156,40,200,106,120,66,13
1919,-20,146,166,-62,-93,156,40,200,106,120,80,13
1920,-24,146,170,-61,-97,158,46,200,100,113,73,0
1921,-20,140,160,-60,-90,149,53,213,106,106,66,0
1922,-22,137,160,-57,-92,148,46,220,106,120,73,0
1923,-20,133,153,-56,-86,142,40,226,106,120,80,0
1924,-20,140,160,-60,-90,149,40,240,100,113,80,0
1925,-13,153,166,-69,-90,160,40,253,120,120,80,0
1926,-13,162,176,-74,-94,169,33,266,126,120,73,6
1927,-6,166,173,-80,-90,169,26,266,133,133,80,13
1928,-2,173,176,-85,-89,174,46,260,140,133,86,13
1929,-13,166,180,-76,-97,173,40,253,146,133,93,26
1930,-13,169,182,-77,-98,176,53,253,140,146,93,33
1931,-20,166,186,-73,-104,176,40,253,133,146,93,26
1932,-22,160,182,-68,-102,170,46,266,133,146,93,20
1933,-26,153,180,-62,-104,166,53,266,133,146,93,13
1934,-20,153,173,-66,-97,162,40,260,146,146,100,20
1935,-20,153,173,-66,-97,162,40,266,133,146,93,13
1936,-10,153,164,-70,-88,158,46,273,146,146,86,20
1937,0,160,160,-80,-80,160,53,293,146,146,80,26
1938,9,162,153,-85,-72,157,40,300,146,153,86,26
1939,13,166,153,-89,-70,160,40,306,146,146,106,40
1940,6,173,166,-89,-80,169,40,320,160,146,106,46
1941,6,173,166,-89,-80,169,40,333,160,160,106,53
1942,6,173,166,-89,-80,169,33,326,153,160,113,60
1943,6,173,166,-89,-80,169,40,320,146,160,120,66
1944,0,170,170,-85,-85,170,53,326,140,160,120,66
1945,-6,166,173,-80,-90,169,53,320,146,160,120,66
1946,-6,164,170,-78,-89,166,53,320,146,173,133,66
1947,-6,166,173,-80,-90,169,66,320,146,173,133,80
1948,-13,160,173,-73,-93,166,60,333,153,180,133,80
1949,0,160,160,-80,-80,160,66,333,160,186,133,80
1950,-6,157,164,-74,-85,160,80,333,180,193,140,93
1951,-6,146,153,-69,-80,149,80,333,186,200,146,93
1952,-6,146,153,-69,-80,149,80,340,193,213,160,100
1953,-6,146,153,-69,-80,149,80,333,200,213,160,106
1954,-2,144,146,-70,-74,145,86,333,206,213,166,100
1955,-6,140,146,-66,-77,142,93,333,200,213,173,93
1956,6,146,140,-76,-66,142,86,353,193,206,166,100
1957,13,146,133,-80,-60,140,80,360,200,213,160,93
1958,13,137,124,-74,-56,130,80,366,186,200,160,93
1959,13,126,113,-69,-50,120,80,373,200,200,160,93
1960,16,130,114,-73,-49,122,80,380,200,213,160,100
1961,13,126,113,-69,-50,120,93,386,200,213,160,106
1962,10,129,118,-69,-54,124,80,400,206,213,160,106
1963,13,140,126,-76,-57,133,80,400,213,213,173,106
1964,4,146,142,-74,-69,144,93,406,226,233,173,126
1965,-13,146,160,-66,-86,153,93,400,226,240,186,133
1966,2,162,160,-82,-78,161,73,400,246,240,193,133
1967,26,180,153,-102,-64,166,66,413,253,240,200,133
1968,30,184,153,-106,-61,168,80,420,253,253,193,146
1969,20,180,160,-100,-70,169,80,426,253,253,200,146
1970,29,180,150,-104,-61,165,66,426,260,253,200,146
1971,26,180,153,-102,-64,166,66,440,266,253,200,146
1972,17,180,162,-98,-73,170,73,440,280,266,200,140
1973,6,180,173,-93,-84,176,66,440,280,266,200,133
1974,22,184,161,-102,-69,172,66,433,280,266,213,146
1975,20,180,160,-100,-70,169,66,426,280,266,213,146
1976,33,189,156,-110,-61,172,73,433,280,273,220,146
1977,40,200,160,-120,-60,180,80,440,293,293,240,160
1978,42,206,164,-124,-61,185,80,453,300,300,246,173
1979,46,213,166,-129,-60,189,80,453,306,306,253,186
1980,30,213,182,-121,-76,197,80,453,300,300,246,180
1981,20,213,193,-116,-86,202,80,453,306,293,253,186
1982,29,213,184,-121,-77,198,73,446,306,300,253,180
1983,40,206,166,-122,-64,186,80,453,306,293,253,173
1984,40,216,176,-128,-68,196,80,460,306,293,260,186
1985,46,220,173,-133,-64,196,80,466,306,306,253,186
1986,42,222,180,-132,-69,201,80,473,320,306,246,186
1987,46,226,180,-136,-66,202,80,480,320,306,253,186
1988,57,236,178,-146,-61,206,73,500,326,306,260,186
1989,46,246,200,-146,-77,222,66,506,346,320,266,200
1990,50,250,200,-150,-74,225,66,500,340,320,280,193
1991,46,246,200,-146,-77,222,66,506,346,320,280,200
1992,46,256,209,-150,-81,232,66,506,353,333,280,206
1993,53,266,213,-160,-80,240,66,506,360,333,293,213
1994,50,266,216,-158,-82,241,66,520,360,333,286,206
1995,53,266,213,-160,-80,240,66,520,360,333,280,200
1996,50,260,209,-154,-80,234,66,506,360,333,280,206
1997,53,260,206,-156,-77,233,66,506,360,346,293,200
1998,53,264,210,-158,-78,237,73,520,366,340,300,213
1999,60,266,206,-162,-73,236,80,520,360,333,306,213
2000,64,269,205,-166,-70,237,86,513,366,340,306,213
2001,66,280,213,-173,-73,246,93,520,373,360,320,226
2002,57,289,232,-173,-88,260,86,540,373,360,320,233
2003,60,300,240,-180,-90,269,80,560,386,360,333,240
2004,73,309,236,-190,-81,272,80,580,386,373,333,253
2005,80,313,233,-196,-77,273,80,586,386,373,333,253
2006,86,313,226,-200,-70,269,66,606,386,373,326,253
2007,93,313,220,-202,-64,266,66,613,386,373,333,253
2008,93,310,217,-201,-62,264,66,606,386,380,333,266
2009,100,313,213,-206,-57,262,66,613,386,373,333,253
2010,109,320,210,-214,-50,265,66,606,386,373,333,266
2011,113,313,200,-213,-44,256,66,613,400,373,333,266
2012,113,316,202,-214,-45,258,73,633,406,386,346,266
2013,113,326,213,-220,-50,269,80,640,413,386,346,266
2014,110,333,222,-221,-56,277,80,633,413,386,346,280
2015,113,333,220,-222,-53,276,80,626,413,386,346,280
2016,116,326,210,-221,-48,268,66,626,406,380,340,273
2017,120,333,213,-226,-46,273,53,640,400,373,346,266
2018,129,340,210,-234,-41,274,53,646,406,380,353,280
2019,153,353,200,-253,-24,276,40,653,413,386,360,280
2020,150,357,206,-253,-28,281,40,653,413,393,360,286
2021,146,353,206,-249,-30,280,26,653,413,400,360,293
2022,150,356,205,-253,-28,280,26,653,420,400,360,293
2023,146,366,220,-256,-37,293,40,653,426,400,373,293
2024,156,373,217,-264,-30,294,40,660,426,406,373,313
2025,160,393,233,-276,-37,313,53,653,426,400,373,320
2026,157,389,232,-273,-37,310,66,660,426,400,380,300
2027,153,386,233,-269,-40,309,66,666,426,400,386,306
2028,153,386,233,-269,-40,309,53,660,420,380,386,306
2029,153,380,226,-266,-37,302,53,653,413,386,373,306
2030,153,366,213,-260,-30,289,46,660,420,373,380,300
2031,153,360,206,-256,-26,282,40,666,413,373,373,293
2032,156,362,206,-258,-25,284,40,666,413,373,373,300
2033,166,373,206,-269,-20,289,40,653,413,373,373,306
2034,166,369,202,-268,-18,285,46,653,406,373,373,306
2035,160,373,213,-266,-26,293,53,653,400,373,373,306
2036,160,370,210,-265,-25,290,53,646,400,366,373,300
2037,160,373,213,-266,-26,293,53,653,400,360,373,293
2038,160,369,209,-264,-25,289,46,646,393,360,366,293
2039,160,373,213,-266,-26,293,53,653,400,360,373,293
2040,164,376,212,-269,-24,293,53,646,400,373,366,293
2041,160,380,220,-269,-30,300,53,653,400,373,360,293
2042,162,373,210,-268,-24,292,40,626,406,366,366,300
2043,166,380,213,-273,-24,296,40,626,413,360,373,293
2044,166,386,220,-276,-26,302,53,613,400,353,360,306
2045,166,386,220,-276,-26,302,53,613,400,360,360,293
2046,160,382,222,-270,-32,302,53,613,400,360,353,293
2047,160,386,226,-273,-33,306,53,600,386,346,346,293
2048,166,384,217,-274,-25,300,53,606,380,353,353,286
2049,166,386,220,-276,-26,302,53,600,373,360,346,280
2050,160,380,220,-269,-30,300,60,600,380,353,346,293
2051,160,373,213,-266,-26,293,40,586,373,360,333,293
2052,160,366,206,-262,-24,286,33,573,373,346,333,280
2053,153,366,213,-260,-30,289,40,573,360,346,320,280
2054,160,373,213,-266,-26,293,26,560,360,340,326,286
2055,166,386,220,-276,-26,302,26,546,360,346,320,280
2056,160,384,224,-272,-32,304,26,526,360,333,320,266
2057,153,373,220,-262,-33,296,26,520,346,333,306,266
2058,146,360,213,-253,-33,286,26,506,346,313,293,240
2059,146,340,193,-242,-24,266,26,493,333,306,266,226
2060,142,342,200,-242,-29,270,26,473,326,286,266,233
2061,140,340,200,-240,-30,269,26,466,320,280,253,226
2062,130,324,193,-226,-32,258,13,453,300,266,233,206
2063,120,313,193,-216,-37,253,13,440,293,253,226,186
2064,120,309,189,-214,-34,249,13,433,286,260,220,186
2065,120,306,186,-213,-33,246,13,426,293,253,213,173
2066,117,297,180,-206,-32,238,33,406,280,253,200,160
2067,106,293,186,-200,-40,240,40,400,280,240,200,160
2068,104,286,182,-194,-40,234,20,373,266,220,186,146
2069,100,280,180,-189,-40,229,26,346,266,213,173,133
2070,80,270,190,-174,-56,230,26,340,253,200,160,113
2071,73,260,186,-166,-57,222,26,333,253,200,160,106
2072,73,246,173,-160,-50,209,26,320,253,193,153,100
2073,66,246,180,-156,-57,213,26,306,240,186,146,106
2074,57,237,180,-146,-61,208,33,300,246,173,146,100
2075,40,226,186,-133,-73,206,40,280,240,173,133,106
2076,33,220,186,-126,-77,202,26,260,233,166,126,86
2077,33,206,173,-120,-70,189,13,253,226,146,106,80
2078,42,209,166,-125,-62,188,13,240,220,140,113,80
2079,60,213,153,-136,-46,182,13,226,226,146,120,93
2080,50,206,156,-128,-53,181,6,226,206,133,113,73
2081,46,200,153,-122,-53,176,26,213,200,133,106,66
2082,49,186,137,-117,-44,161,26,206,200,120,106,73
2083,53,173,120,-113,-33,146,26,213,186,106,93,66
2084,37,157,120,-97,-41,138,33,206,173,106,86,53
2085,26,146,120,-86,-46,133,40,213,173,93,93,53
2086,17,136,118,-76,-50,126,26,220,166,93,86,33
2087,6,140,133,-73,-64,136,40,226,173,93,93,26
2088,9,137,128,-73,-60,132,26,226,173,86,93,33
2089,13,126,113,-69,-50,120,26,213,173,93,80,26
2090,13,129,116,-70,-52,122,33,206,180,80,80,20
2091,6,126,120,-66,-57,122,26,186,173,80,66,26
2092,16,122,106,-69,-45,114,26,180,173,73,53,33
2093,20,120,100,-69,-40,109,26,160,173,80,53,26
2094,20,113,93,-66,-37,102,33,153,153,73,46,20
2095,20,106,86,-62,-33,96,40,133,146,53,26,0
2096,13,106,93,-60,-40,100,33,140,153,53,26,-6
2097,13,106,93,-60,-40,100,40,146,146,40,26,-13
2098,6,97,90,-52,-42,93,40,133,140,40,13,-26
2099,0,93,93,-46,-46,93,40,133,133,40,13,-26
2100,2,96,93,-49,-45,94,26,120,126,26,0,-26
2101,0,86,86,-42,-44,86,13,120,133,26,0,-26
2102,0,89,89,-44,-45,89,6,106,133,33,13,-33
2103,0,93,93,-46,-46,93,0,106,133,40,26,-26
2104,2,90,88,-46,-42,89,0,100,133,26,6,-26
2105,0,80,80,-40,-40,80,0,80,133,26,0,-40
2106,-9,73,82,-32,-46,77,0,86,140,33,0,-46
2107,-6,73,80,-33,-44,76,0,80,146,26,0,-53
2108,-26,73,100,-22,-64,86,13,86,133,20,-6,-40
2109,-53,73,126,-9,-90,100,26,93,133,13,0,-40
2110,-44,66,110,-10,-77,88,20,66,126,13,-6,-46
2111,-46,53,100,-2,-73,76,13,53,120,0,-13,-53
2112,-24,53,77,-14,-50,65,13,46,113,0,-13,-53
2113,-6,60,66,-26,-37,62,13,40,106,0,-13,-53
2114,-13,60,73,-22,-44,66,13,60,113,0,-20,-46
2115,-13,60,73,-22,-44,66,13,53,106,0,0,-40
2116,-6,56,62,-24,-34,58,-6,46,106,0,-6,-40
2117,-6,53,60,-22,-33,56,0,40,106,-13,0,-40
2118,-6,46,53,-20,-30,49,0,33,120,-6,0,-40
2119,-13,40,53,-13,-33,46,0,13,133,0,0,-53
2120,0,26,26,-13,-13,26,-6,13,113,-13,-26,-60
2121,20,26,6,-22,6,16,-13,13,106,-26,-40,-66
2122,6,6,0,-6,2,2,-13,20,100,-33,-40,-73
2123,-13,0,13,6,-13,6,-13,26,93,-40,-40,-80
2124,-9,10,20,0,-14,14,-13,13,93,-40,-40,-80
2125,-13,13,26,0,-20,20,-13,13,93,-53,-40,-80
2126,-16,22,38,-2,-28,30,-13,0,100,-46,-40,-86
2127,-20,26,46,-2,-33,36,-13,-13,93,-53,-40,-93
2128,-20,29,49,-4,-34,38,13,-6,93,-46,-40,-86
2129,-26,26,53,0,-40,40,26,0,106,-53,-40,-80
2130,-4,22,26,-9,-16,24,33,-13,106,-46,-46,-80
2131,6,26,20,-16,-6,22,26,-13,106,-40,-53,-93
2132,13,33,20,-22,-4,26,33,-13,100,-46,-53,-80
2133,26,40,13,-33,6,26,26,-13,106,-53,-53,-93
2134,17,40,22,-28,-2,30,33,0,113,-53,-53,-73
2135,13,33,20,-22,-4,26,40,0,106,-53,-66,-80
2136,6,26,20,-16,-6,22,26,-6,106,-53,-66,-80
2137,-6,13,20,-2,-13,16,26,0,106,-53,-66,-80
2138,0,16,16,-8,-8,16,26,-13,100,-66,-66,-73
2139,-6,13,20,-2,-13,16,26,0,93,-66,-66,-66
2140,-20,13,33,4,-26,22,33,0,100,-66,-66,-66
2141,-26,20,46,4,-37,33,40,0,106,-66,-66,-66
2142,-22,33,56,-5,-40,44,33,6,106,-66,-66,-66
2143,-40,33,73,4,-57,53,40,13,106,-53,-66,-66
2144,-33,24,57,5,-45,40,33,6,113,-60,-60,-66
2145,-40,26,66,6,-53,46,40,-13,106,-53,-53,-66
2146,-20,33,53,-6,-37,42,40,-13,106,-53,-66,-86
2147,-13,40,53,-13,-33,46,40,-13,106,-66,-66,-93
2148,-9,40,49,-14,-29,44,33,-20,106,-53,-66,-93
2149,-6,40,46,-16,-26,42,26,-26,106,-53,-66,-93
2150,2,42,40,-22,-18,41,13,-26,120,-60,-73,-93
2151,13,53,40,-33,-13,46,0,-26,120,-66,-66,-93
2152,-2,53,56,-25,-29,54,0,-20,120,-66,-86,-100
2153,-13,53,66,-20,-40,60,0,-26,120,-66,-80,-93
2154,-13,60,73,-22,-44,66,0,-26,113,-80,-93,-106
2155,-20,66,86,-22,-53,76,0,-26,106,-80,-93,-106
2156,-13,80,93,-33,-53,86,13,-33,106,-73,-86,-106
2157,-13,86,100,-36,-57,93,26,-40,93,-66,-80,-106
2158,-10,86,97,-37,-54,92,13,-46,93,-73,-86,-113
2159,-13,86,100,-36,-57,93,13,-53,93,-80,-93,-120
2160,-13,86,100,-36,-57,93,6,-53,86,-86,-93,-126
2161,-13,86,100,-36,-57,93,13,-53,80,-93,-93,-133
2162,-16,89,105,-36,-61,97,20,-46,93,-86,-86,-133
2163,-20,93,113,-36,-66,102,26,-53,93,-80,-80,-133
2164,-24,93,117,-34,-70,105,26,-53,106,-80,-80,-140
2165,-20,86,106,-33,-64,96,26,-53,106,-80,-80,-146
2166,-29,80,109,-25,-69,94,20,-53,100,-80,-80,-146
2167,-33,80,113,-22,-73,96,13,-53,106,-80,-93,-146
2168,-33,66,100,-16,-66,82,13,-73,93,-86,-93,-146
2169,-46,53,100,-2,-73,76,13,-93,93,-93,-106,-146
2170,-46,44,90,1,-69,66,6,-93,100,-93,-120,-146
2171,-46,46,93,0,-70,69,0,-93,93,-93,-120,-146
2172,-40,53,93,-6,-66,73,6,-93,93,-93,-113,-146
2173,-33,60,93,-13,-64,76,13,-93,93,-93,-120,-146
2174,-33,66,100,-16,-66,82,13,-80,86,-93,-120,-146
2175,-13,73,86,-29,-50,80,13,-66,80,-80,-120,-146
2176,-9,82,92,-36,-50,86,13,-60,86,-86,-120,-133
2177,-20,86,106,-33,-64,96,13,-53,93,-80,-120,-120
2178,-6,89,96,-41,-52,92,6,-53,93,-80,-120,-120
2179,0,93,93,-46,-46,93,13,-53,93,-80,-120,-120
2180,-2,90,93,-44,-48,92,13,-53,93,-80,-113,-113
2181,-13,80,93,-33,-53,86,26,-66,93,-80,-106,-106
2182,-10,73,84,-30,-48,78,6,-60,86,-80,-106,-113
2183,-13,66,80,-26,-46,73,0,-66,80,-80,-106,-120
2184,-26,64,90,-18,-58,77,13,-60,80,-86,-100,-93
2185,-53,53,106,0,-80,80,13,-53,80,-93,-93,-93
2186,-60,53,113,4,-86,82,13,-40,86,-80,-86,-80
2187,-73,53,126,10,-100,89,0,-26,93,-66,-80,-80
2188,-50,53,104,-1,-77,78,0,-33,93,-93,-73,-73
2189,-33,46,80,-6,-57,62,0,-40,93,-93,-66,-80
2190,-10,50,61,-20,-36,56,-6,-33,93,-93,-73,-86
2191,0,46,46,-22,-24,46,-13,-40,80,-93,-80,-93
2192,-6,26,33,-9,-20,29,-13,-26,93,-93,-80,-100
2193,-13,20,33,-2,-24,26,0,-26,93,-93,-80,-106
2194,-13,16,29,-1,-21,22,0,-26,86,-93,-73,-106
2195,-13,20,33,-2,-24,26,0,-13,80,-93,-66,-106
2196,-9,20,29,-5,-20,24,0,-26,86,-93,-73,-106
2197,-13,20,33,-2,-24,26,0,-26,80,-93,-80,-106
2198,-16,20,36,-1,-26,28,-13,-13,80,-86,-73,-113
2199,-20,20,40,0,-30,29,-13,-13,93,-80,-66,-120
2200,-20,13,33,4,-26,22,-13,-13,93,-86,-80,-113
2201,-20,13,33,4,-26,22,0,-13,93,-80,-80,-120
2202,-17,6,24,5,-21,14,-13,-20,86,-86,-86,-120
2203,-13,-6,6,10,-10,0,-13,-13,80,-80,-93,-120
2204,-26,2,29,12,-28,16,6,-13,73,-73,-86,-113
2205,-33,0,33,17,-33,16,13,-13,66,-80,-80,-106
2206,-13,16,29,-1,-21,22,26,-20,73,-86,-100,-100
2207,6,40,33,-22,-13,36,40,-26,80,-66,-93,-93
2208,-13,37,50,-12,-32,44,40,-20,86,-66,-86,-86
2209,-26,33,60,-2,-44,46,40,-13,93,-80,-93,-80
2210,-26,26,53,0,-40,40,33,-13,80,-80,-93,-80
2211,-26,20,46,4,-37,33,26,0,80,-66,-80,-80
2212,-20,36,56,-8,-38,45,33,0,100,-66,-73,-80
2213,-6,33,40,-13,-24,36,40,0,93,-66,-80,-80
2214,-9,33,42,-12,-26,37,40,0,86,-66,-86,-80
2215,-20,33,53,-6,-37,42,40,0,80,-66,-93,-80
2216,-16,33,49,-8,-33,41,46,0,86,-60,-80,-86
2217,-20,40,60,-9,-40,49,53,0,93,-53,-80,-93
2218,-13,37,50,-12,-32,44,46,-6,86,-60,-80,-86
2219,-6,33,40,-13,-24,36,40,-13,80,-66,-93,-93
2220,-4,26,30,-10,-17,28,46,-13,73,-73,-100,-100
2221,0,13,13,-6,-6,13,53,-13,66,-80,-106,-106
2222,2,6,4,-4,-1,5,46,-26,60,-73,-100,-113
2223,6,0,-6,-2,6,-4,40,-26,53,-66,-93,-120
2224,6,2,-4,-4,5,-1,40,-33,53,-66,-93,-126
2225,6,0,-6,-2,6,-4,40,-26,53,-66,-93,-133
2226,-2,-9,-6,6,1,-8,46,-20,60,-73,-93,-140
2227,-13,-6,6,10,-10,0,53,-13,66,-80,-93,-133
2228,-16,-4,12,10,-14,4,46,-20,60,-86,-80,-126
2229,-20,0,20,10,-20,9,53,-26,53,-93,-80,-120
2230,-17,2,20,8,-18,10,60,-13,60,-66,-93,-120
2231,-20,0,20,10,-20,9,53,-13,66,-66,-93,-120
2232,-20,0,20,10,-20,9,53,-26,60,-60,-93,-120
2233,-26,-6,20,17,-24,6,53,-26,66,-53,-93,-120
2234,-22,-6,16,14,-20,4,53,-20,53,-60,-100,-120
2235,-26,-6,20,17,-24,6,53,-13,53,-53,-93,-120
2236,-20,2,22,9,-21,12,66,0,60,-53,-86,-120
2237,-6,13,20,-2,-13,16,80,13,66,-53,-80,-120
2238,-4,10,14,-2,-9,12,73,13,73,-53,-80,-113
2239,0,6,6,-2,-4,6,66,13,80,-53,-80,-106
2240,-4,6,10,-1,-8,8,66,6,66,-73,-100,-120
2241,6,6,0,-6,2,2,66,0,66,-66,-106,-120
2242,-9,6,16,1,-13,10,60,6,66,-53,-86,-126
2243,-20,6,26,6,-24,16,66,13,66,-40,-80,-133
2244,-40,4,44,18,-42,24,60,6,73,-33,-73,-113
2245,-60,6,66,26,-64,36,66,0,80,-26,-66,-106
2246,-69,0,69,34,-69,34,66,0,93,-26,-66,-100
2247,-66,-6,60,37,-64,26,66,0,93,-26,-66,-93
2248,-50,-6,44,29,-48,18,73,6,86,-26,-66,-93
2249,-40,-13,26,26,-33,6,66,0,80,-26,-66,-93
2250,-17,-13,4,16,-10,-5,60,0,80,-26,-66,-100
2251,6,-20,-26,6,16,-24,53,0,80,-26,-66,-106
2252,2,-13,-16,5,9,-14,60,0,86,-26,-66,-106
2253,13,-13,-26,0,20,-20,66,0,80,-26,-66,-106
2254,9,-17,-26,4,17,-22,53,-13,93,-6,-66,-106
2255,20,-13,-33,-2,26,-24,66,-13,93,-13,-53,-106
2256,10,-16,-26,2,18,-21,60,-13,100,-6,-53,-93
2257,6,-20,-26,6,16,-24,53,-13,106,-13,-53,-93
2258,-2,-20,-17,12,6,-18,60,-13,100,-20,-53,-80
2259,-13,-20,-6,17,-4,-13,66,-13,93,-13,-40,-66
2260,-10,-17,-6,14,-2,-12,60,-6,100,-20,-46,-66
2261,-6,-13,-6,10,0,-10,53,0,106,-13,-40,-66
2262,-26,-22,4,25,-16,-9,53,6,100,-26,-33,-66
2263,-53,-26,26,40,-40,0,53,0,93,-26,-26,-66
2264,-53,-40,13,46,-33,-13,53,6,73,-33,-33,-66
2265,-53,-46,6,50,-30,-20,40,0,66,-40,-53,-66
2266,-62,-44,18,53,-41,-13,53,0,60,-46,-53,-60
2267,-60,-33,26,46,-44,-4,53,0,66,-53,-53,-53
2268,-37,-30,6,34,-22,-12,46,6,66,-53,-53,-60
2269,-20,-26,-6,24,-6,-17,40,13,66,-53,-53,-66
2270,-42,-24,18,33,-30,-2,53,6,66,-53,-53,-60
2271,-66,-26,40,46,-53,6,66,13,66,-53,-53,-66
2272,-60,-22,37,41,-49,6,80,20,73,-46,-46,-53
2273,-66,-20,46,44,-57,13,80,26,80,-40,-40,-53
2274,-53,-13,40,33,-46,13,80,13,73,-40,-40,-66
2275,-40,-13,26,26,-33,6,80,0,66,-40,-40,-66
2276,-26,-22,4,25,-16,-9,73,0,66,-46,-46,-73
2277,-13,-20,-6,17,-4,-13,66,-13,66,-53,-53,-80
2278,-13,-22,-9,18,-2,-16,66,-6,73,-53,-53,-80
2279,-13,-26,-13,20,0,-20,66,0,80,-53,-53,-80
2280,-10,-29,-18,20,4,-24,66,-13,73,-53,-53,-80
2281,0,-26,-26,13,13,-26,66,-13,66,-53,-53,-80
2282,6,-17,-24,5,14,-21,66,0,66,-53,-40,-73
2283,13,-6,-20,-2,16,-13,66,0,66,-53,-40,-80
2284,13,-20,-33,4,22,-26,66,-6,66,-53,-53,-73
2285,6,-33,-40,13,22,-37,66,0,66,-53,-53,-80
2286,2,-26,-29,12,16,-28,73,-6,66,-53,-53,-80
2287,0,-26,-26,13,13,-26,66,-13,66,-53,-53,-80
2288,16,-17,-33,1,24,-25,66,-13,73,-46,-60,-80
2289,20,-6,-26,-6,22,-17,66,-13,93,-40,-66,-80
2290,20,-4,-24,-8,21,-14,60,-13,80,-40,-60,-86
2291,20,0,-20,-9,20,-10,53,-13,80,-40,-53,-93
2292,13,-16,-29,1,21,-22,53,-20,73,-33,-60,-93
2293,13,-20,-33,4,22,-26,53,-26,66,-26,-66,-93
2294,20,-17,-37,-1,28,-28,40,-26,66,-40,-66,-100
2295,20,-13,-33,-2,26,-24,40,-26,66,-40,-66,-106
2296,6,-13,-20,4,13,-17,53,-20,73,-33,-73,-100
2297,-6,-13,-6,10,0,-10,66,-13,80,-26,-80,-93
2298,-6,-22,-16,14,4,-20,66,-13,80,-26,-80,-93
2299,-13,-26,-13,20,0,-20,80,-13,80,-26,-80,-93
2300,-13,-26,-13,20,0,-20,80,-20,73,-33,-80,-93
2301,-13,-33,-20,24,2,-26,80,-26,66,-40,-80,-106
2302,2,-33,-36,16,18,-34,80,-33,73,-33,-93,-93
2303,20,-33,-53,6,36,-44,80,-13,80,-26,-93,-106
2304,29,-17,-46,-5,37,-32,80,-6,86,-20,-73,-86
2305,40,-6,-46,-16,42,-26,66,-13,93,-13,-66,-93
2306,46,-4,-50,-21,48,-28,53,-6,93,-20,-66,-93
2307,46,0,-46,-22,46,-24,40,-13,93,-26,-66,-93
2308,44,-6,-50,-18,46,-29,40,-6,106,-20,-73,-93
2309,40,0,-40,-20,40,-20,40,0,106,-13,-66,-93
2310,37,0,-37,-18,37,-18,53,0,106,-6,-60,-86
2311,33,0,-33,-16,33,-17,66,0,106,0,-53,-80
2312,29,2,-26,-16,28,-12,80,0,106,0,-53,-86
2313,40,6,-33,-22,36,-13,93,0,106,0,-53,-93
2314,30,9,-21,-20,25,-6,106,6,100,-6,-60,-93
2315,20,13,-6,-16,13,2,120,13,93,-13,-66,-93
2316,-42,4,46,20,-45,25,126,13,113,-20,-53,-73
2317,-106,-13,93,60,-100,40,133,13,133,-13,-40,-53
2318,-93,-13,80,53,-86,33,153,13,133,-6,-40,-53
2319,-80,-20,60,50,-70,20,160,0,133,0,-53,-53
2320,-64,-20,44,42,-54,12,146,6,140,0,-53,-46
2321,-53,-20,33,37,-44,6,146,13,146,0,-40,-40
2322,-44,-10,33,28,-38,10,133,13,140,0,-60,-53
2323,-33,-6,26,20,-30,9,120,13,133,0,-53,-66
2324,-33,-16,17,25,-25,0,126,-13,126,-13,-46,-73
2325,-40,-26,13,33,-26,-6,120,-26,120,-26,-40,-80
2326,6,-10,-17,2,12,-14,106,-13,113,-33,-53,-80
2327,53,0,-53,-26,53,-26,93,-26,106,-40,-53,-80
2328,50,-2,-53,-24,52,-28,80,-26,93,-46,-60,-93
2329,46,-6,-53,-20,49,-30,66,-26,80,-53,-66,-106
2330,33,6,-26,-20,29,-10,80,-26,80,-66,-66,-100
2331,0,13,13,-6,-6,13,80,-26,80,-53,-66,-93
2332,9,10,1,-9,4,5,66,-26,86,-60,-66,-86
2333,20,13,-6,-16,13,2,40,-26,93,-53,-66,-93
2334,33,6,-26,-20,29,-10,33,-40,73,-66,-80,-100
2335,26,0,-26,-13,26,-13,26,-40,66,-80,-93,-106
2336,26,-6,-33,-9,29,-20,20,-40,60,-93,-100,-113
2337,33,-6,-40,-13,36,-24,13,-40,53,-106,-106,-120
2338,60,2,-57,-30,58,-28,0,-53,46,-106,-106,-120
2339,73,13,-60,-42,66,-24,-13,-66,40,-106,-120,-133
2340,66,6,-60,-36,62,-26,-13,-66,33,-113,-120,-133
2341,53,6,-46,-29,49,-20,0,-66,26,-120,-120,-146
2342,44,4,-40,-24,41,-18,-6,-66,20,-113,-120,-146
2343,33,0,-33,-16,33,-17,0,-66,13,-106,-120,-146
2344,53,2,-50,-28,52,-24,0,-73,20,-106,-106,-140
2345,66,13,-53,-40,60,-20,0,-80,26,-106,-106,-133
2346,66,9,-57,-37,61,-24,13,-80,33,-113,-120,-133
2347,80,20,-60,-49,69,-20,26,-80,40,-120,-120,-133
2348,96,26,-69,-61,82,-21,33,-80,40,-113,-113,-126
2349,106,33,-73,-69,89,-20,40,-80,40,-106,-106,-120
2350,84,26,-57,-54,70,-16,40,-80,40,-106,-106,-120
2351,66,20,-46,-42,56,-13,40,-93,40,-106,-106,-120
2352,66,26,-40,-46,53,-6,40,-86,33,-106,-113,-120
2353,66,26,-40,-46,53,-6,40,-93,26,-106,-120,-120
2354,60,20,-40,-40,49,-10,40,-86,33,-120,-113,-120
2355,60,33,-26,-46,42,2,40,-80,40,-120,-106,-120
2356,60,33,-26,-46,42,2,40,-80,40,-100,-100,-120
2357,60,33,-26,-46,42,2,40,-80,40,-106,-93,-120
2358,62,30,-32,-46,46,-1,40,-73,40,-106,-93,-140
2359,66,26,-40,-46,53,-6,40,-80,40,-106,-93,-133
2360,60,22,-37,-41,48,-8,26,-80,40,-106,-93,-133
2361,53,26,-26,-40,40,0,13,-80,40,-106,-93,-133
2362,53,24,-29,-38,41,-2,20,-86,40,-106,-93,-126
2363,46,26,-20,-36,33,2,26,-93,40,-106,-93,-133
2364,42,20,-22,-30,32,-1,20,-93,40,-106,-93,-133
2365,46,13,-33,-29,40,-10,13,-93,40,-106,-93,-133
2366,64,20,-44,-41,53,-12,20,-100,40,-106,-93,-133
2367,73,20,-53,-46,62,-17,26,-106,40,-106,-93,-133
2368,73,22,-50,-48,61,-14,20,-93,33,-93,-86,-126
2369,80,20,-60,-49,69,-20,13,-106,40,-93,-80,-120
2370,77,17,-60,-46,68,-21,26,-106,33,-106,-86,-133
2371,73,13,-60,-42,66,-24,26,-106,26,-120,-93,-133
2372,60,0,-60,-29,60,-30,26,-86,26,-100,-100,-126
2373,46,-13,-60,-16,53,-37,26,-93,26,-106,-106,-120
2374,40,-13,-53,-13,46,-33,26,-86,33,-106,-113,-126
2375,46,-13,-60,-16,53,-37,26,-80,26,-106,-120,-120
2376,66,6,-60,-36,62,-26,26,-73,33,-93,-100,-100
2377,86,20,-66,-53,76,-24,26,-66,53,-80,-80,-106
2378,77,26,-50,-52,64,-12,46,-73,60,-80,-80,-93
2379,66,26,-40,-46,53,-6,40,-80,66,-80,-80,-106
2380,57,17,-40,-37,48,-12,46,-60,46,-86,-80,-106
2381,53,6,-46,-29,49,-20,53,-66,53,-80,-80,-93
2382,40,10,-29,-25,34,-9,66,-53,53,-80,-73,-93
2383,20,-6,-26,-6,22,-17,66,-53,53,-93,-66,-106
2384,13,-4,-17,-4,14,-10,93,-53,46,-66,-73,-106
2385,-13,0,13,6,-13,6,106,-26,66,-66,-80,-93
2386,-16,4,20,6,-18,12,106,-20,60,-60,-80,-86
2387,-13,6,20,4,-17,13,120,-13,53,-66,-80,-80
