0,-25,-57,-32,41,2,-45,-6,13,0,-40,-26,-46
1,0,-26,-26,13,13,-26,-13,-13,0,-26,-13,-26
2,2,-29,-32,13,17,-30,-6,-26,0,-26,-13,-26
3,6,-33,-40,13,22,-37,0,-26,0,-26,-13,-26
4,2,-33,-36,16,18,-34,-6,-26,-6,-20,-6,-26
5,-6,-33,-26,20,9,-30,0,-26,-13,-13,0,-26
6,0,-33,-33,17,16,-33,0,-26,0,-13,-13,-33
7,-6,-33,-26,20,9,-30,0,-26,-13,-26,-13,-26
8,-4,-40,-36,22,16,-38,6,-26,-20,-26,-6,-33
9,0,-46,-46,24,22,-46,13,-26,-26,-26,-13,-40
10,-6,-53,-46,30,20,-50,-6,-26,-26,-26,-6,-46
11,-6,-53,-46,30,20,-50,-13,-26,-26,-26,-13,-53
12,-6,-40,-33,24,13,-37,6,-20,-20,-26,-20,-53
13,-13,-40,-26,26,6,-33,13,-13,-13,-26,-26,-53
14,-13,-40,-26,26,6,-33,-6,-13,-20,-26,-26,-53
15,-6,-33,-26,20,9,-30,-13,-26,-26,-26,-26,-53
16,2,-26,-29,12,16,-28,0,-13,-26,-26,-20,-60
17,13,-26,-40,6,26,-33,0,-13,-26,-26,-26,-66
18,16,-26,-42,5,29,-34,-6,-13,-26,-33,-20,-73
19,13,-33,-46,10,29,-40,-13,-13,-26,-26,-26,-66
20,10,-29,-40,9,25,-34,-6,-20,-26,-40,-20,-80
21,6,-33,-40,13,22,-37,-13,-26,-26,-40,-26,-66
22,10,-40,-50,14,30,-45,-26,-46,-26,-46,-20,-60
23,13,-33,-46,10,29,-40,-26,-40,-26,-53,-13,-53
24,9,-40,-49,16,29,-45,-26,-46,-33,-33,-20,-53
25,13,-40,-53,13,33,-46,-26,-53,-40,-40,-26,-66
26,20,-37,-57,9,38,-48,-33,-53,-40,-46,-26,-53
27,13,-40,-53,13,33,-46,-40,-53,-40,-40,-26,-53
28,13,-36,-49,12,30,-42,-33,-46,-40,-40,-20,-53
29,13,-33,-46,10,29,-40,-26,-40,-40,-40,-13,-53
30,13,-26,-40,6,26,-33,-26,-46,-26,-33,-13,-46
31,13,-20,-33,4,22,-26,-26,-53,-26,-26,-13,-40
32,26,-20,-46,-2,36,-33,-26,-46,-20,-26,-13,-40
33,26,-26,-53,0,40,-40,-26,-40,-26,-26,-13,-40
34,29,-26,-56,-1,42,-41,-26,-40,-26,-40,-6,-46
35,26,-40,-66,6,46,-53,-26,-40,-26,-40,0,-40
36,13,-40,-53,13,33,-46,-26,-40,-26,-33,6,-33
37,6,-46,-53,20,29,-50,-26,-40,-40,-26,0,-40
38,-2,-46,-44,25,20,-45,-20,-33,-26,-46,6,-40
39,0,-40,-40,20,20,-40,-13,-26,-26,-40,13,-40
40,9,-40,-49,16,29,-45,0,-26,-26,-46,6,-46
41,33,-40,-73,4,53,-57,-13,-26,-26,-53,0,-53
42,49,-33,-82,-8,65,-58,-6,-33,-26,-53,6,-46
43,60,-26,-86,-16,73,-57,-13,-40,-26,-53,0,-40
44,57,-26,-84,-14,70,-56,-26,-33,-40,-66,0,-60
45,46,-26,-73,-9,60,-50,-13,-26,-26,-66,0,-66
46,24,-33,-57,5,40,-45,-13,-26,-26,-53,0,-46
47,6,-46,-53,20,29,-50,-13,-26,-26,-66,0,-53
48,16,-46,-62,16,38,-54,-20,-26,-26,-66,-6,-66
49,20,-46,-66,13,42,-57,-26,-26,-26,-66,-13,-66
50,20,-56,-76,18,48,-66,-26,-33,-33,-66,-13,-73
51,20,-53,-73,17,46,-64,-26,-40,-40,-66,-13,-66
52,26,-53,-80,13,53,-66,-20,-20,-33,-66,-13,-66
53,26,-53,-80,13,53,-66,-13,-26,-26,-66,-13,-66
54,33,-40,-73,4,53,-57,-13,-26,-20,-60,-13,-60
55,40,-33,-73,-2,56,-53,-13,-26,-26,-53,-13,-53
56,44,-24,-68,-9,56,-46,-6,-20,-26,-60,-13,-53
57,40,-26,-66,-6,53,-46,0,-13,-26,-66,-13,-53
58,33,-20,-53,-6,42,-37,-6,-13,-26,-60,-6,-53
59,26,-26,-53,0,40,-40,-13,-13,-26,-53,0,-53
60,20,-42,-62,12,41,-53,-13,-13,-33,-60,-6,-60
61,0,-53,-53,26,26,-53,-13,-13,-40,-66,-13,-66
62,-4,-57,-53,30,24,-56,-13,-6,-40,-66,-13,-66
63,0,-53,-53,26,26,-53,-13,0,-40,-66,-13,-66
64,2,-53,-56,25,29,-54,-13,0,-40,-66,-13,-66
65,6,-53,-60,24,33,-57,-13,0,-40,-66,-13,-66
66,13,-56,-69,21,41,-62,-13,0,-40,-66,-13,-66
67,13,-60,-73,24,42,-66,-13,0,-40,-66,-13,-66
68,29,-53,-82,12,56,-68,-13,0,-46,-73,-13,-73
69,40,-53,-93,6,66,-73,-13,0,-53,-80,-13,-80
70,37,-62,-100,13,68,-81,-20,-6,-33,-86,-33,-80
71,33,-66,-100,17,66,-84,-26,-13,-40,-93,-26,-80
72,40,-64,-104,12,72,-84,-20,-6,-33,-86,-26,-86
73,40,-66,-106,13,73,-86,-13,0,-26,-80,-26,-80
74,37,-60,-97,12,66,-78,-13,0,-26,-73,-20,-73
75,33,-60,-93,13,62,-77,-13,0,-26,-66,-26,-66
76,26,-60,-86,17,56,-73,-13,0,-26,-80,-33,-73
77,20,-66,-86,24,53,-77,-13,0,-26,-80,-40,-80
78,13,-66,-80,26,46,-73,-6,0,-20,-80,-40,-80
79,0,-66,-66,33,33,-66,0,0,-13,-80,-40,-80
80,4,-80,-84,38,44,-82,-20,0,-33,-80,-40,-86
81,0,-80,-80,40,40,-80,-13,0,-26,-80,-40,-93
82,4,-69,-73,33,38,-72,-13,0,-26,-80,-40,-80
83,0,-73,-73,37,36,-73,-13,0,-26,-80,-40,-80
84,2,-82,-85,40,44,-84,-13,0,-26,-80,-40,-80
85,0,-80,-80,40,40,-80,-13,0,-26,-80,-40,-80
86,9,-80,-89,36,49,-85,-13,6,-26,-80,-40,-80
87,13,-73,-86,30,49,-80,-13,13,-26,-80,-40,-80
88,16,-80,-96,32,56,-88,-13,6,-26,-80,-40,-80
89,20,-73,-93,26,56,-84,-13,0,-26,-80,-40,-80
90,20,-70,-90,25,54,-81,-6,6,-20,-73,-33,-73
91,13,-66,-80,26,46,-73,0,13,-13,-66,-26,-66
92,6,-80,-86,37,46,-84,0,0,-20,-73,-33,-73
93,0,-86,-86,44,42,-86,13,-13,-26,-80,-40,-80
94,9,-84,-93,37,50,-89,0,-13,-26,-86,-46,-80
95,6,-86,-93,40,49,-90,13,-13,-26,-93,-53,-80
96,22,-80,-102,29,62,-92,13,6,-26,-93,-53,-80
97,26,-86,-113,30,69,-100,13,13,-26,-93,-53,-80
98,29,-82,-112,26,70,-97,13,0,-26,-86,-53,-93
99,33,-86,-120,26,76,-104,13,0,-26,-80,-53,-80
100,30,-86,-117,28,73,-102,13,-6,-33,-86,-53,-86
101,26,-93,-120,33,73,-106,0,-13,-40,-93,-53,-80
102,33,-93,-126,30,80,-110,-6,-13,-40,-93,-60,-80
103,33,-100,-133,33,82,-117,0,-13,-40,-93,-66,-80
104,40,-90,-130,25,85,-110,0,0,-46,-86,-73,-80
105,40,-86,-126,24,82,-106,0,0,-53,-80,-80,-80
106,53,-80,-133,13,93,-106,0,-13,-46,-73,-73,-80
107,60,-73,-133,6,96,-104,-13,-13,-40,-66,-66,-80
108,62,-66,-129,2,96,-98,-13,-13,-40,-73,-73,-86
109,60,-73,-133,6,96,-104,-13,-13,-40,-80,-80,-80
110,53,-70,-124,9,88,-97,0,0,-26,-66,-66,-80
111,53,-66,-120,6,86,-93,0,0,-40,-66,-66,-80
112,56,-60,-116,2,85,-88,0,0,-26,-60,-80,-93
113,73,-60,-133,-6,102,-97,13,13,-26,-53,-80,-93
114,70,-64,-134,-2,102,-100,6,13,-26,-60,-80,-93
115,73,-73,-146,0,109,-110,13,26,-26,-53,-80,-106
116,73,-76,-149,1,110,-113,20,26,-13,-66,-80,-120
117,73,-86,-160,6,116,-124,26,40,-13,-53,-93,-120
118,53,-89,-142,18,97,-116,40,33,0,-33,-80,-133
119,40,-100,-140,30,89,-120,53,40,0,-26,-80,-133
120,26,-100,-126,37,76,-113,60,60,13,-20,-73,-133
121,20,-93,-113,37,66,-104,66,66,26,0,-53,-133
122,22,-90,-113,34,68,-102,73,80,26,0,-53,-133
123,20,-73,-93,26,56,-84,66,80,40,13,-40,-120
124,0,-66,-66,33,33,-66,66,80,40,26,-33,-120
125,-20,-46,-26,33,2,-37,66,80,40,40,0,-93
126,-22,-20,2,21,-13,-9,60,86,53,60,33,-73
127,-26,0,26,13,-26,13,66,80,53,80,66,-40
128,-20,30,50,-5,-36,40,53,80,53,86,100,-6
129,-20,86,106,-33,-64,96,53,93,80,120,146,40
130,-13,133,146,-60,-80,140,53,93,80,146,213,80
131,-6,166,173,-80,-90,169,66,93,106,186,253,120
132,33,240,206,-136,-86,222,60,106,126,220,320,166
133,66,320,253,-193,-93,286,53,120,146,253,386,226
134,86,389,302,-237,-108,345,53,140,160,293,453,293
135,113,453,340,-282,-113,396,53,160,186,333,506,346
136,133,526,393,-329,-130,460,53,180,220,393,573,400
137,140,586,446,-362,-153,516,53,200,240,426,626,453
138,153,662,509,-408,-178,585,53,226,273,493,706,526
139,166,760,593,-462,-213,676,53,240,306,546,786,600
140,193,844,650,-518,-229,746,53,260,333,606,846,660
141,213,926,713,-569,-250,820,53,280,360,653,920,720
142,242,1013,770,-628,-264,892,53,286,400,713,993,800
143,280,1106,826,-693,-273,966,53,293,426,760,1066,880
144,297,1206,909,-752,-306,1057,60,300,446,800,1126,946
145,313,1286,973,-800,-330,1129,53,293,466,840,1186,1026
146,326,1370,1044,-848,-358,1206,40,280,480,860,1233,1080
147,333,1446,1113,-889,-390,1280,26,253,493,880,1280,1146
148,340,1460,1120,-900,-390,1289,13,246,493,893,1286,1166
149,326,1466,1140,-896,-406,1302,0,226,493,893,1280,1173
150,313,1410,1097,-861,-392,1253,26,220,480,833,1206,1160
151,293,1266,973,-780,-340,1120,40,213,440,733,1080,1093
152,266,1093,826,-680,-280,960,46,206,373,620,893,980
153,226,873,646,-549,-210,760,40,200,293,466,680,840
154,200,713,513,-456,-157,613,53,146,233,346,506,740
155,173,546,373,-360,-100,460,40,80,160,213,346,626
156,173,429,256,-301,-41,342,20,26,80,106,226,540
157,180,340,160,-260,9,249,-13,-40,0,0,120,480
158,173,226,53,-200,60,140,-60,-120,-66,-80,20,413
159,173,126,-46,-149,109,40,-106,-186,-160,-186,-66,346
160,140,60,-80,-100,109,-10,-126,-246,-213,-253,-126,313
161,126,20,-106,-73,116,-44,-146,-280,-253,-293,-160,280
162,122,-10,-133,-56,128,-72,-160,-326,-293,-333,-193,253
163,100,-26,-126,-36,113,-77,-186,-346,-306,-346,-200,240
164,86,-40,-126,-22,106,-84,-180,-360,-313,-353,-206,226
165,80,-46,-126,-16,102,-86,-186,-373,-320,-360,-200,200
166,56,-66,-122,5,89,-94,-180,-373,-333,-353,-220,173
167,53,-60,-113,4,82,-86,-186,-373,-333,-360,-226,146
168,46,-66,-113,10,80,-90,-173,-386,-320,-340,-213,120
169,46,-66,-113,10,80,-90,-186,-373,-293,-306,-200,106
170,46,-64,-110,9,78,-88,-180,-366,-286,-293,-193,86
171,26,-53,-80,13,53,-66,-173,-360,-266,-280,-173,66
172,30,-49,-80,9,54,-65,-186,-360,-260,-273,-173,53
173,26,-46,-73,10,49,-60,-200,-346,-266,-266,-173,26
174,30,-66,-97,18,64,-82,-200,-333,-246,-246,-160,13
175,26,-80,-106,26,66,-93,-200,-333,-253,-253,-160,-13
176,26,-84,-110,29,68,-97,-206,-313,-253,-240,-153,-26
177,26,-93,-120,33,73,-106,-200,-306,-253,-240,-160,-40
178,24,-93,-117,34,70,-105,-200,-280,-233,-226,-140,-40
179,26,-86,-113,30,69,-100,-186,-240,-186,-186,-133,-40
180,36,-84,-120,24,77,-102,-160,-220,-186,-180,-126,-46
181,46,-80,-126,17,86,-104,-133,-186,-173,-160,-120,-53
182,56,-76,-132,10,93,-104,-126,-166,-166,-153,-106,-53
183,53,-73,-126,10,89,-100,-106,-146,-160,-146,-106,-66
184,50,-80,-130,14,90,-105,-86,-106,-126,-146,-113,-60
185,46,-86,-133,20,89,-110,-66,-93,-120,-133,-106,-66
186,40,-96,-136,28,88,-116,-60,-73,-126,-120,-106,-73
187,40,-106,-146,33,93,-126,-40,-53,-120,-120,-106,-80
188,42,-97,-140,28,90,-118,-46,-46,-100,-106,-93,-73
189,46,-100,-146,26,96,-124,-40,-53,-93,-106,-93,-66
190,33,-96,-129,32,81,-113,-26,-46,-86,-93,-80,-66
191,20,-106,-126,44,73,-117,-26,-40,-93,-93,-80,-66
192,17,-97,-114,40,65,-106,-33,-40,-80,-93,-80,-66
193,13,-93,-106,40,60,-100,-26,-26,-80,-80,-66,-66
194,20,-77,-97,29,58,-88,-26,-26,-73,-60,-60,-53
195,20,-53,-73,17,46,-64,-26,-26,-40,-53,-40,-53
196,20,-49,-69,14,44,-60,-33,-26,-46,-46,-46,-60
197,20,-60,-80,20,49,-70,-26,-13,-40,-40,-40,-53
198,16,-49,-65,17,40,-57,-20,-13,-40,-40,-40,-60
199,20,-46,-66,13,42,-57,-13,-13,-40,-40,-40,-66
200,4,-53,-57,25,30,-56,-13,-13,-40,-40,-40,-53
201,0,-53,-53,26,26,-53,-26,-13,-40,-40,-40,-53
202,-4,-50,-46,28,21,-49,-13,-26,-40,-46,-26,-60
203,0,-40,-40,20,20,-40,-13,-13,-40,-40,-40,-53
204,0,-40,-40,20,20,-40,-20,-6,-40,-46,-26,-53
205,-6,-40,-33,24,13,-37,0,0,-53,-40,-40,-53
206,-13,-60,-46,37,16,-53,0,0,-40,-40,-46,-73
207,-13,-66,-53,40,20,-60,0,0,-40,-40,-53,-66
208,-16,-70,-54,44,18,-62,0,0,-33,-40,-46,-66
209,-26,-66,-40,46,6,-53,13,13,-26,-40,-40,-53
210,-40,-73,-33,57,-4,-53,20,13,-20,-20,-33,-60
211,-53,-73,-20,64,-17,-46,13,13,-13,-26,-40,-66
212,-56,-76,-20,66,-18,-48,20,13,-13,-33,-33,-60
213,-66,-80,-13,73,-26,-46,13,13,-13,-40,-26,-53
214,-57,-80,-22,69,-17,-52,6,6,-13,-26,-20,-53
215,-46,-73,-26,60,-10,-50,0,0,-13,-26,-13,-40
216,-46,-60,-13,53,-17,-37,6,-13,-13,-20,-13,-46
217,-33,-53,-20,44,-6,-37,13,0,0,-13,-13,-40
218,-33,-53,-20,44,-6,-37,0,13,-13,-13,-13,-46
219,-33,-46,-13,40,-10,-30,0,13,0,-13,-13,-40
220,-33,-46,-13,40,-10,-30,0,6,-13,-13,-13,-40
221,-40,-53,-13,46,-13,-33,0,0,-13,-13,-13,-40
222,-33,-60,-26,46,-4,-44,6,0,-13,-13,-13,-40
223,-26,-53,-26,40,0,-40,13,0,-13,-13,-13,-40
224,-24,-40,-16,32,-4,-28,13,20,-6,-6,-20,-40
225,-6,-33,-26,20,9,-30,26,26,0,0,-13,-40
226,-9,-30,-21,20,5,-26,26,26,0,0,0,-33
227,-13,-26,-13,20,0,-20,26,26,0,0,13,-40
228,-16,-26,-10,21,-2,-18,26,20,-6,0,-6,-46
229,-20,-33,-13,26,-4,-24,26,13,-13,0,0,-53
230,-33,-33,0,33,-17,-17,26,13,0,0,0,-46
231,-53,-40,13,46,-33,-13,26,13,0,0,0,-40
232,-46,-46,0,46,-24,-24,26,13,0,0,0,-46
233,-53,-46,6,50,-30,-20,26,13,0,0,0,-40
234,-53,-53,0,53,-26,-26,20,13,0,-6,0,-33
235,-60,-66,-6,64,-26,-37,13,13,-13,-13,-13,-40
236,-69,-66,2,68,-36,-32,20,13,0,-6,0,-26
237,-80,-66,13,73,-46,-26,13,13,0,0,0,-26
238,-80,-69,10,74,-45,-29,13,0,-6,-6,-6,-26
239,-80,-73,6,77,-44,-33,26,13,-13,-13,-13,-26
240,-80,-57,22,69,-52,-17,20,20,0,-6,0,-26
241,-73,-33,40,53,-57,2,26,26,13,13,13,-26
242,-66,-37,29,52,-48,-4,33,26,6,6,13,-33
243,-66,-33,33,50,-50,0,26,26,0,0,13,-40
244,-66,-42,24,54,-45,-9,26,26,0,0,13,-33
245,-60,-40,20,50,-40,-10,26,26,0,0,13,-26
246,-57,-37,20,48,-38,-9,26,26,-6,0,13,-26
247,-53,-40,13,46,-33,-13,26,26,-13,0,13,-26
248,-49,-40,9,45,-29,-16,26,20,-13,0,6,-33
249,-60,-46,13,53,-37,-17,26,13,-13,0,0,-40
250,-40,-37,2,38,-21,-17,26,20,-6,6,6,-33
251,-40,-33,6,37,-24,-13,26,26,0,13,13,-26
252,-37,-20,17,29,-28,-1,33,26,6,13,13,-26
253,-33,-20,13,26,-24,-4,40,26,13,13,13,-26
254,-29,-33,-4,32,-13,-18,40,26,6,6,13,-26
255,-20,-26,-6,24,-6,-17,40,26,0,0,13,-26
256,-17,-20,-2,18,-8,-12,33,13,13,0,26,-33
257,-13,-20,-6,17,-4,-13,26,0,13,0,13,-40
258,-20,-30,-10,25,-5,-21,26,26,13,0,20,-20
259,-20,-26,-6,24,-6,-17,26,26,13,0,13,-26
260,-10,-26,-16,18,2,-21,26,20,6,0,13,-33
261,0,-26,-26,13,13,-26,26,13,0,0,13,-26
262,2,-20,-22,9,12,-21,26,13,0,6,13,-33
263,6,-20,-26,6,16,-24,26,13,0,13,13,-26
264,-2,-29,-26,16,12,-28,20,13,0,13,20,-40
265,-6,-33,-26,20,9,-30,13,13,0,26,26,-40
266,-6,-29,-22,18,8,-26,20,13,-13,20,26,-46
267,-6,-33,-26,20,9,-30,26,13,0,26,26,-53
268,-4,-33,-29,18,12,-32,26,13,-13,20,26,-53
269,-6,-33,-26,20,9,-30,26,13,-13,13,26,-53
270,-6,-24,-17,16,5,-21,13,13,-6,6,26,-66
271,-6,-13,-6,10,0,-10,13,13,0,0,26,-53
272,-6,-22,-16,14,4,-20,20,13,6,0,26,-53
273,-6,-33,-26,20,9,-30,13,13,0,0,26,-53
274,-2,-22,-20,13,8,-21,26,20,0,6,13,-73
275,0,-26,-26,13,13,-26,26,26,-13,13,0,-66
276,-10,-33,-22,22,5,-28,26,20,-6,26,6,-66
277,-6,-40,-33,24,13,-37,26,13,-13,13,0,-66
278,-9,-33,-24,21,6,-29,20,13,-6,20,0,-66
279,-13,-33,-20,24,2,-26,26,13,0,26,0,-66
280,2,-26,-29,12,16,-28,20,20,-13,26,0,-60
281,13,-13,-26,0,20,-20,26,26,0,40,0,-53
282,13,-6,-20,-2,16,-13,26,26,0,20,0,-53
283,13,-6,-20,-2,16,-13,26,26,-13,26,0,-53
284,4,-13,-17,5,10,-16,20,20,6,20,-6,-53
285,0,-13,-13,6,6,-13,13,13,0,0,-13,-53
286,-9,-20,-10,14,0,-16,13,13,0,13,-13,-53
287,-6,-20,-13,13,2,-17,13,13,0,13,-13,-53
288,-13,-26,-13,20,0,-20,13,6,-6,13,-13,-60
289,-6,-13,-6,10,0,-10,13,13,0,13,0,-53
290,-13,-20,-6,17,-4,-13,26,13,0,13,0,-66
291,-20,-26,-6,24,-6,-17,13,13,-13,13,-13,-66
292,-16,-22,-6,20,-5,-14,6,0,-13,6,-13,-66
293,-26,-26,0,26,-13,-13,0,0,-13,0,-13,-66
294,-37,-33,4,36,-21,-14,0,6,-20,6,-13,-73
295,-26,-33,-6,30,-10,-20,0,13,-13,13,0,-66
296,-26,-20,6,24,-17,-6,6,6,-6,13,0,-66
297,-6,-6,0,6,-4,-4,0,0,0,13,0,-66
298,2,0,-2,-1,2,-1,13,6,-13,13,0,-60
299,13,13,0,-13,6,6,13,13,-13,13,0,-53
300,13,20,6,-16,2,13,13,13,-13,13,20,-53
301,20,26,6,-22,6,16,13,13,-13,13,13,-53
302,10,20,9,-14,0,14,6,6,-13,13,6,-53
303,13,20,6,-16,2,13,13,0,-13,26,0,-53
304,13,17,4,-14,4,10,6,6,-13,13,13,-60
305,13,13,0,-13,6,6,13,13,-13,13,0,-53
306,16,20,4,-17,5,12,6,0,-20,26,20,-53
307,20,13,-6,-16,13,2,13,0,-26,13,26,-53
308,20,20,0,-20,9,9,13,20,-13,33,26,-46
309,20,20,0,-20,9,9,13,13,-13,40,26,-40
310,26,33,6,-29,9,20,6,6,-33,40,26,-40
311,33,40,6,-36,13,22,0,0,-26,40,26,-40
312,37,40,2,-38,17,21,6,6,-20,33,33,-46
313,26,40,13,-33,6,26,13,13,-13,26,26,-53
314,22,40,17,-30,2,28,13,13,-13,40,40,-40
315,26,40,13,-33,6,26,13,13,-13,40,40,-40
316,40,56,16,-48,12,36,13,13,-13,40,46,-20
317,40,60,20,-49,9,40,13,13,-13,40,53,-13
318,46,64,17,-54,14,40,13,20,-13,40,53,-13
319,60,73,13,-66,22,42,13,26,0,40,53,-13
320,53,86,33,-69,9,60,13,26,-6,46,53,-6
321,60,93,33,-76,13,62,13,26,0,40,53,13
322,60,96,36,-77,12,65,6,20,6,40,66,0
323,66,93,26,-80,20,60,0,13,0,40,53,0
324,70,100,29,-85,20,64,0,20,0,46,66,6
325,66,100,33,-82,16,66,0,26,0,53,66,0
326,66,84,17,-74,24,50,-6,13,0,46,60,0
327,66,86,20,-76,22,53,-13,0,0,40,53,0
328,82,96,13,-89,34,54,-13,0,0,40,66,0
329,86,100,13,-93,36,56,-13,0,0,53,66,13
330,66,100,33,-82,16,66,-20,-6,6,46,80,13
331,60,100,40,-80,9,69,-26,-13,13,40,80,13
332,66,113,46,-89,9,80,-26,-6,13,40,86,26
333,66,120,53,-93,6,86,-26,-13,13,40,93,26
334,64,133,69,-98,-2,101,-26,0,13,46,106,33
335,60,133,73,-96,-6,102,-26,0,26,66,106,40
336,66,142,76,-104,-5,109,-20,0,40,66,106,53
337,73,153,80,-113,-4,116,-26,0,40,66,120,53
338,56,162,106,-109,-25,134,-26,-6,26,66,120,60
339,66,166,100,-116,-17,133,-26,0,26,66,120,66
340,57,160,102,-108,-22,130,-26,0,20,60,120,60
341,53,173,120,-113,-33,146,-26,0,40,66,133,66
342,62,176,113,-118,-25,144,-26,-6,26,73,133,66
343,73,186,113,-129,-20,149,-26,-13,40,80,133,80
344,76,209,133,-142,-29,170,-20,-6,40,100,146,86
345,86,226,140,-156,-26,182,-13,0,40,93,146,93
346,77,220,142,-148,-33,181,-26,0,40,100,160,86
347,80,226,146,-153,-33,186,-26,-13,40,93,160,93
348,82,230,148,-156,-33,189,-26,0,40,100,160,100
349,80,226,146,-153,-33,186,-26,-13,40,106,160,106
350,100,229,129,-164,-14,178,-33,-20,33,100,166,93
351,106,233,126,-169,-10,180,-40,-13,26,106,160,93
352,100,240,140,-169,-20,189,-40,-26,40,106,173,100
353,106,240,133,-173,-13,186,-40,-26,40,106,173,106
354,129,260,130,-194,-1,194,-46,-26,40,106,173,120
355,133,280,146,-206,-6,213,-40,-26,40,106,186,120
356,140,286,146,-213,-4,216,-46,-20,40,120,186,133
357,140,293,153,-216,-6,222,-53,-13,40,120,186,133
358,146,306,160,-226,-6,233,-53,-6,46,120,193,126
359,166,313,146,-240,9,229,-53,0,53,120,186,133
360,170,329,158,-249,5,244,-53,0,53,133,200,133
361,166,346,180,-256,-6,262,-53,0,53,133,213,146
362,169,350,181,-260,-6,265,-53,0,66,126,213,146
363,173,366,193,-269,-10,280,-53,0,66,133,226,160
364,173,369,196,-270,-12,282,-53,-6,66,133,233,160
365,173,380,206,-276,-17,293,-53,-13,66,133,240,173
366,164,377,213,-270,-25,294,-53,-20,66,126,233,166
367,153,380,226,-266,-37,302,-40,-26,66,133,240,173
368,144,377,233,-260,-45,305,-46,-26,60,140,240,173
369,126,373,246,-249,-60,309,-53,-26,53,146,240,173
370,124,377,253,-250,-65,314,-60,-26,66,153,260,186
371,120,386,266,-253,-73,326,-66,-26,66,160,266,186
372,113,386,273,-249,-80,329,-60,-26,73,173,266,193
373,113,400,286,-256,-86,342,-53,-26,80,173,280,213
374,120,402,282,-261,-81,342,-53,-20,80,180,273,213
375,113,413,300,-262,-93,356,-53,-26,80,186,266,213
376,116,420,304,-268,-94,361,-53,-20,80,173,286,213
377,120,420,300,-269,-90,360,-53,-26,80,173,280,226
378,117,420,302,-268,-93,361,-60,-26,73,180,286,226
379,113,426,313,-269,-100,369,-66,-26,66,186,280,226
380,120,433,313,-276,-97,373,-66,-26,80,186,293,226
381,120,440,320,-280,-100,380,-66,-26,80,186,293,240
382,133,449,316,-290,-92,382,-60,-26,86,186,300,246
383,140,466,326,-302,-93,396,-53,-26,93,186,306,253
384,130,457,326,-293,-98,392,-66,-40,93,193,300,240
385,133,453,320,-293,-93,386,-66,-40,93,186,306,226
386,113,450,337,-281,-112,393,-66,-40,93,186,306,246
387,100,440,340,-269,-120,389,-66,-40,93,186,306,253
388,100,446,346,-273,-124,396,-60,-20,86,186,300,246
389,93,440,346,-266,-126,393,-53,-26,80,186,293,240
390,113,433,320,-273,-104,376,-60,-33,80,180,293,246
391,113,433,320,-273,-104,376,-66,-40,80,173,293,253
392,100,440,340,-269,-120,389,-73,-20,86,180,306,260
393,106,440,333,-273,-113,386,-80,-26,93,186,306,253
394,106,440,333,-273,-113,386,-80,-26,86,186,306,260
395,106,440,333,-273,-113,386,-80,-26,80,186,306,266
396,104,446,342,-274,-120,394,-80,-26,80,200,306,266
397,100,453,353,-276,-126,402,-80,-26,80,186,306,266
398,116,462,346,-289,-116,404,-80,-26,80,200,313,266
399,120,473,353,-296,-117,413,-80,-26,80,200,320,280
400,120,473,353,-296,-117,413,-80,-26,80,186,313,280
401,120,473,353,-296,-117,413,-80,-26,80,200,306,280
402,106,473,366,-289,-130,420,-73,-20,93,200,320,280
403,106,473,366,-289,-130,420,-66,0,93,200,306,280
404,97,466,369,-281,-136,417,-66,-20,100,200,306,280
405,80,460,380,-269,-150,420,-66,-13,106,200,306,280
406,84,464,380,-273,-148,421,-53,-13,106,200,320,293
407,80,460,380,-269,-150,420,-66,-13,106,200,320,293
408,100,462,362,-281,-132,412,-60,0,106,206,313,300
409,113,466,353,-289,-120,409,-53,0,106,213,320,306
410,116,460,344,-288,-114,401,-40,-13,106,213,320,306
411,126,453,326,-289,-100,389,-53,-13,106,200,320,306
412,133,446,313,-289,-90,380,-60,-20,106,193,320,293
413,133,433,300,-282,-84,366,-53,-26,106,200,320,293
414,117,433,316,-274,-100,374,-53,-26,106,186,306,286
415,120,426,306,-273,-93,366,-53,-26,106,186,306,280
416,129,429,300,-278,-85,364,-60,-26,100,186,320,280
417,133,426,293,-280,-80,360,-66,-26,93,186,320,280
418,133,417,284,-274,-76,350,-53,-20,93,173,313,266
419,133,406,273,-269,-70,340,-40,-13,93,186,306,266
420,124,397,273,-260,-74,334,-40,-20,86,173,306,260
421,126,386,260,-256,-66,322,-40,-26,80,173,293,253
422,124,389,265,-256,-70,326,-53,-13,80,166,293,246
423,120,386,266,-253,-73,326,-53,-13,80,160,293,253
424,124,380,256,-252,-66,317,-46,-6,86,166,280,260
425,120,373,253,-246,-66,313,-40,0,93,160,280,266
426,124,369,245,-246,-61,306,-40,0,80,153,280,253
427,106,366,260,-236,-77,313,-40,0,93,146,266,253
428,100,350,250,-225,-76,300,-46,-6,73,146,260,233
429,80,326,246,-202,-84,286,-40,-13,66,146,253,226
430,76,329,253,-202,-89,290,-33,6,80,153,246,240
431,66,320,253,-193,-93,286,-26,13,66,146,253,240
432,69,313,244,-190,-88,278,-13,20,86,146,240,240
433,73,320,246,-196,-86,282,0,26,80,146,240,226
434,66,309,242,-188,-88,276,13,46,93,153,246,226
435,80,313,233,-196,-77,273,0,53,80,160,240,226
436,80,309,229,-194,-74,269,13,53,86,140,240,213
437,80,313,233,-196,-77,273,13,53,80,133,240,213
438,82,316,233,-198,-76,274,6,53,86,140,226,213
439,93,320,226,-206,-66,273,0,66,93,146,240,213
440,93,306,213,-200,-60,260,13,66,93,146,226,200
441,86,300,213,-193,-64,256,13,66,93,146,213,186
442,93,286,193,-189,-50,240,6,60,86,146,206,186
443,93,273,180,-182,-44,226,0,53,80,146,200,173
444,73,257,184,-165,-56,220,0,60,80,133,186,166
445,53,253,200,-153,-73,226,0,66,80,133,186,160
446,62,237,174,-149,-56,205,6,60,80,133,186,146
447,53,226,173,-140,-60,200,13,66,80,133,173,146
448,53,226,173,-140,-60,200,13,66,80,140,173,140
449,46,220,173,-133,-64,196,13,66,80,133,160,146
450,53,216,162,-134,-54,189,20,66,73,126,160,126
451,60,213,153,-136,-46,182,13,66,66,120,146,120
452,53,209,156,-130,-52,182,13,66,73,120,146,113
453,53,206,153,-129,-50,180,13,66,80,120,133,120
454,53,200,146,-126,-46,173,20,60,66,126,133,113
455,53,200,146,-126,-46,173,26,53,80,133,133,120
456,40,186,146,-113,-53,166,33,73,66,113,126,113
457,40,173,133,-106,-46,153,40,66,66,106,106,93
458,33,160,126,-96,-46,142,46,73,66,106,106,93
459,26,153,126,-89,-50,140,40,80,66,106,93,80
460,10,124,113,-66,-52,118,40,66,66,86,93,73
461,-6,106,113,-49,-60,109,40,53,66,80,80,66
462,-9,100,109,-45,-60,104,40,73,73,86,80,53
463,-13,100,113,-42,-64,106,40,66,80,93,80,53
464,-16,90,106,-37,-61,98,46,86,80,93,73,60
465,-26,80,106,-26,-66,93,53,80,66,93,80,53
466,-17,86,104,-34,-61,94,46,73,66,80,86,60
467,0,86,86,-42,-44,86,40,66,66,80,80,53
468,13,89,76,-50,-32,82,46,73,60,80,73,46
469,20,86,66,-53,-24,76,40,66,53,80,66,40
470,33,89,56,-61,-12,72,33,73,53,80,66,40
471,26,86,60,-56,-17,73,26,80,53,66,53,40
472,29,80,50,-54,-10,65,40,73,53,73,53,26
473,46,80,33,-62,6,56,53,66,53,80,53,26
474,40,89,49,-64,-5,69,40,73,60,80,60,33
475,40,86,46,-62,-4,66,40,66,53,66,53,26
476,49,86,37,-68,5,61,33,66,53,66,53,20
477,60,86,26,-73,16,56,26,66,53,66,53,13
478,60,82,22,-70,18,52,40,66,46,60,40,20
479,66,86,20,-76,22,53,40,66,40,53,40,13
480,73,93,20,-82,26,56,40,60,46,60,46,13
481,80,93,13,-86,33,53,40,53,53,66,40,13
482,70,82,12,-76,29,46,33,53,40,53,40,6
483,66,80,13,-73,26,46,40,53,40,53,40,13
484,60,77,17,-68,21,46,40,53,53,53,33,6
485,60,60,0,-60,29,29,40,53,40,53,26,0
486,66,56,-10,-61,38,22,26,46,33,33,20,0
487,66,60,-6,-62,36,26,26,40,26,40,26,0
488,64,53,-10,-58,37,21,26,40,33,26,26,0
489,46,53,6,-49,20,29,26,40,40,26,26,0
490,46,33,-13,-40,29,9,26,40,20,26,20,-13
491,46,33,-13,-40,29,9,26,40,26,26,13,-13
492,13,26,13,-20,0,20,26,40,26,26,20,-20
493,-6,13,20,-2,-13,16,26,40,13,26,26,-26
494,-6,-2,4,5,-5,0,13,46,20,6,6,-26
495,-20,-20,0,20,-10,-10,13,40,26,13,0,-40
496,-42,-49,-6,46,-18,-28,6,40,20,-6,0,-46
497,-53,-66,-13,60,-20,-40,0,40,13,-13,0,-53
498,-53,-62,-9,58,-22,-36,0,40,13,-6,-20,-60
499,-60,-73,-13,66,-24,-44,0,26,0,-13,-26,-66
500,-50,-60,-9,56,-21,-34,6,33,-6,-20,-6,-66
501,-40,-40,0,40,-20,-20,13,13,-13,-26,-13,-66
502,-37,-30,6,34,-22,-12,6,20,-13,-20,-20,-66
503,-26,-26,0,26,-13,-13,0,13,-13,-40,-26,-66
504,-24,-37,-13,30,-5,-25,6,20,-13,-33,-26,-66
505,-26,-33,-6,30,-10,-20,13,26,-13,-26,-26,-66
506,-30,-33,-2,32,-14,-18,6,13,-13,-33,-26,-60
507,-13,-26,-13,20,0,-20,0,13,-13,-40,-26,-53
508,-10,-20,-9,16,-1,-14,6,13,-13,-20,-26,-53
509,-6,-20,-13,13,2,-17,13,13,-13,-26,-26,-53
510,-2,-17,-14,10,5,-16,13,26,-6,-26,-26,-53
511,0,-13,-13,6,6,-13,13,13,-13,-26,-40,-66
512,-2,-20,-17,12,6,-18,20,13,-6,-26,-26,-53
513,-6,-26,-20,17,6,-24,26,26,-13,-26,-40,-53
514,2,-26,-29,12,16,-28,26,26,-6,-26,-33,-66
515,6,-33,-40,13,22,-37,26,26,0,-26,-26,-53
516,9,-30,-40,10,24,-36,26,33,-6,-26,-26,-66
517,20,-26,-46,4,33,-37,26,26,-13,-26,-26,-66
518,13,-49,-62,18,37,-56,20,26,-13,-26,-46,-66
519,13,-60,-73,24,42,-66,13,26,-13,-40,-53,-66
520,4,-56,-60,26,32,-58,20,20,-20,-40,-40,-60
521,6,-60,-66,26,36,-64,13,13,-13,-40,-53,-66
522,-6,-73,-66,40,29,-70,20,13,-6,-46,-60,-66
523,-6,-80,-73,44,33,-77,26,13,0,-53,-66,-66
524,-6,-77,-70,42,32,-74,20,20,0,-46,-60,-73
525,-13,-73,-60,44,22,-66,13,26,0,-40,-53,-80
526,-4,-66,-62,36,29,-65,13,26,0,-46,-53,-80
527,-6,-73,-66,40,29,-70,13,26,0,-53,-53,-80
528,-6,-70,-64,38,28,-68,6,26,0,-46,-66,-80
529,-13,-73,-60,44,22,-66,0,26,0,-40,-53,-80
530,-4,-50,-46,28,21,-49,20,26,0,-33,-60,-80
531,6,-40,-46,17,26,-44,13,26,0,-26,-53,-80
532,2,-40,-42,18,22,-41,6,33,0,-46,-53,-73
533,6,-40,-46,17,26,-44,13,40,0,-40,-53,-66
534,6,-42,-49,18,28,-46,13,33,0,-40,-53,-73
535,0,-40,-40,20,20,-40,13,26,0,-40,-53,-80
536,6,-40,-46,17,26,-44,13,33,0,-40,-53,-73
537,0,-40,-40,20,20,-40,13,40,0,-40,-53,-66
538,-2,-44,-41,24,18,-42,13,40,0,-40,-60,-73
539,-6,-46,-40,26,16,-44,13,40,0,-40,-66,-80
540,2,-49,-52,24,26,-50,13,33,0,-40,-66,-80
541,6,-53,-60,24,33,-57,13,26,0,-40,-66,-80
542,2,-50,-53,24,28,-52,20,33,0,-33,-73,-80
543,6,-46,-53,20,29,-50,26,40,0,-40,-80,-80
544,-13,-60,-46,37,16,-53,6,26,0,-46,-80,-86
545,-26,-66,-40,46,6,-53,13,26,0,-53,-80,-93
546,-26,-73,-46,50,9,-60,20,33,6,-53,-80,-86
547,-33,-80,-46,57,6,-64,13,26,13,-53,-80,-80
548,-33,-69,-36,52,1,-53,20,26,6,-40,-80,-86
549,-20,-80,-60,50,20,-70,13,26,0,-53,-93,-93
550,-26,-82,-56,54,14,-69,6,13,-6,-60,-80,-106
551,-26,-93,-66,60,20,-80,0,13,-13,-66,-93,-106
552,-20,-89,-69,54,24,-80,6,26,-6,-60,-80,-106
553,-13,-93,-80,53,33,-86,13,26,0,-53,-80,-93
554,-17,-102,-85,60,33,-94,13,13,-6,-60,-100,-100
555,-13,-100,-86,57,36,-93,13,26,-13,-53,-93,-106
556,-6,-93,-86,50,40,-90,6,26,-13,-66,-93,-106
557,0,-93,-93,46,46,-93,0,26,-13,-66,-93,-106
558,13,-86,-100,37,56,-93,6,6,-6,-53,-100,-106
559,26,-66,-93,20,60,-80,13,0,-13,-40,-93,-93
560,24,-66,-90,21,57,-78,13,13,6,-40,-93,-100
561,26,-60,-86,17,56,-73,13,13,13,-40,-80,-93
562,20,-60,-80,20,49,-70,20,13,13,-46,-80,-93
563,6,-60,-66,26,36,-64,26,13,13,-40,-80,-93
564,-13,-69,-56,41,21,-62,26,13,20,-26,-73,-86
565,-20,-60,-40,40,9,-50,26,13,26,-26,-66,-80
566,-13,-60,-46,37,16,-53,26,13,20,-26,-66,-86
567,-13,-66,-53,40,20,-60,26,13,13,-26,-66,-93
568,-10,-69,-58,40,24,-64,26,20,0,-26,-66,-93
569,0,-66,-66,33,33,-66,26,13,13,-26,-66,-93
570,13,-64,-77,25,45,-70,26,6,13,-26,-60,-86
571,20,-53,-73,17,46,-64,26,0,13,-26,-53,-80
572,26,-42,-69,8,48,-56,26,13,20,-13,-53,-80
573,33,-40,-73,4,53,-57,26,13,26,-26,-53,-80
574,33,-46,-80,6,56,-64,20,6,20,-26,-53,-86
575,33,-53,-86,10,60,-70,13,0,13,-26,-53,-93
576,26,-56,-82,14,54,-69,13,0,6,-26,-60,-100
577,20,-73,-93,26,56,-84,0,0,0,-26,-66,-106
578,20,-66,-86,24,53,-77,6,0,0,-26,-66,-106
579,13,-73,-86,30,49,-80,0,0,0,-26,-66,-106
580,13,-76,-89,32,50,-82,0,0,0,-13,-53,-106
581,13,-73,-86,30,49,-80,0,0,0,-26,-53,-106
582,16,-73,-89,29,52,-81,0,0,6,-13,-53,-106
583,20,-73,-93,26,56,-84,0,0,13,-13,-53,-106
584,26,-60,-86,17,56,-73,0,0,13,-20,-53,-93
585,26,-53,-80,13,53,-66,0,0,13,-26,-53,-93
586,22,-57,-80,17,50,-69,-6,0,6,-26,-60,-86
587,33,-60,-93,13,62,-77,-13,0,0,-26,-66,-93
588,36,-50,-86,8,61,-69,0,6,0,-33,-66,-93
589,40,-46,-86,4,62,-66,13,13,0,-40,-66,-80
590,49,-33,-82,-8,65,-58,13,13,-6,-40,-66,-80
591,60,-33,-93,-13,76,-64,13,13,-13,-40,-66,-80
592,60,-30,-90,-14,74,-61,13,13,-13,-46,-73,-80
593,60,-26,-86,-16,73,-57,13,13,0,-40,-66,-80
594,66,-24,-90,-21,78,-57,13,6,-6,-33,-60,-80
595,73,-13,-86,-29,80,-50,13,0,0,-26,-53,-80
596,66,-13,-80,-26,73,-46,20,20,13,-26,-60,-66
597,60,-26,-86,-16,73,-57,26,13,13,-26,-66,-80
598,40,-29,-69,-5,54,-49,26,33,-6,-20,-73,-66
599,33,-40,-73,4,53,-57,26,26,0,-13,-66,-66
600,20,-46,-66,13,42,-57,26,20,-6,-20,-80,-66
601,20,-53,-73,17,46,-64,26,13,0,-26,-66,-66
602,17,-56,-73,20,45,-65,6,13,-6,-26,-80,-73
603,20,-60,-80,20,49,-70,13,26,-13,-26,-80,-80
604,10,-50,-61,20,36,-56,13,26,0,-13,-73,-80
605,13,-46,-60,17,36,-53,13,13,-13,-26,-80,-80
606,36,-44,-80,4,57,-62,13,13,0,-20,-73,-86
607,40,-26,-66,-6,53,-46,13,13,0,-26,-66,-93
608,40,-16,-56,-12,48,-36,20,6,0,-33,-60,-100
609,40,-20,-60,-9,49,-40,26,0,0,-40,-66,-93
610,26,-22,-49,-1,37,-36,20,0,0,-40,-66,-93
611,13,-20,-33,4,22,-26,13,0,0,-40,-66,-93
612,-13,-33,-20,24,2,-26,13,-6,0,-33,-46,-86
613,-33,-46,-13,40,-10,-30,13,-13,0,-40,-53,-80
614,-26,-53,-26,40,0,-40,13,-6,0,-46,-53,-80
615,-26,-46,-20,37,-4,-33,13,0,0,-53,-53,-80
616,-26,-49,-22,38,-2,-36,13,0,0,-46,-53,-80
617,-26,-53,-26,40,0,-40,13,0,0,-40,-53,-80
618,-26,-53,-26,40,0,-40,13,13,13,-40,-53,-80
619,-26,-60,-33,44,2,-46,13,0,0,-40,-53,-80
620,-10,-37,-26,24,8,-32,20,13,13,-40,-53,-73
621,0,-20,-20,10,9,-20,26,13,13,-40,-53,-66
622,16,-13,-29,-1,22,-21,26,6,6,-26,-40,-66
623,26,0,-26,-13,26,-13,26,13,26,-13,-40,-53
624,29,2,-26,-16,28,-12,26,13,20,-20,-40,-60
625,40,13,-26,-26,33,-6,26,13,13,-26,-40,-66
626,33,4,-29,-18,30,-13,26,13,13,-20,-33,-66
627,33,0,-33,-16,33,-17,26,13,13,-13,-26,-66
628,26,-6,-33,-9,29,-20,13,-13,0,-13,-26,-66
629,20,-13,-33,-2,26,-24,13,-13,0,-13,-26,-66
630,10,-16,-26,2,18,-21,13,13,13,-20,-26,-66
631,-6,-26,-20,17,6,-24,0,13,13,-26,-26,-66
632,9,-26,-36,9,22,-32,6,13,20,-6,-20,-66
633,20,-13,-33,-2,26,-24,13,13,26,0,-13,-66
634,10,-9,-20,0,14,-14,13,13,26,-13,-20,-60
635,0,-13,-13,6,6,-13,13,13,26,0,-26,-53
636,4,-6,-10,1,6,-9,-6,20,26,0,-26,-53
637,6,-6,-13,0,9,-10,-13,26,26,0,-26,-53
638,-6,-9,-2,8,-2,-6,0,20,26,0,-26,-53
639,-6,-13,-6,10,0,-10,0,13,26,0,-26,-53
640,2,-13,-16,5,9,-14,0,20,26,-6,-33,-60
641,6,-13,-20,4,13,-17,0,26,26,-13,-40,-66
642,6,-16,-22,5,14,-20,-6,20,26,-6,-40,-66
643,6,-20,-26,6,16,-24,-13,13,26,0,-40,-66
644,6,-10,-17,2,12,-14,0,33,20,0,-33,-60
645,6,0,-6,-2,6,-4,13,26,13,0,-13,-53
646,9,-2,-12,-2,10,-8,6,20,6,0,-13,-53
647,13,0,-13,-6,13,-6,0,26,0,0,-13,-53
648,16,-4,-20,-5,17,-12,6,13,6,-13,-26,-53
649,13,6,-6,-9,9,0,13,13,13,-13,-26,-53
650,20,9,-10,-14,14,-1,-6,13,6,0,-26,-46
651,20,6,-13,-13,16,-4,0,13,0,-13,-26,-40
652,22,6,-16,-14,18,-5,0,13,-13,-13,-26,-40
653,26,0,-26,-13,26,-13,0,13,0,-13,-26,-40
654,24,-2,-26,-10,25,-14,0,20,0,-13,-26,-40
655,26,0,-26,-13,26,-13,0,26,0,-13,-26,-40
656,26,13,-13,-20,20,0,6,20,0,-13,-33,-40
657,26,20,-6,-22,16,6,0,13,0,-13,-40,-40
658,26,13,-13,-20,20,0,-6,13,0,-13,-40,-40
659,20,20,0,-20,9,9,0,13,0,-13,-40,-40
660,24,10,-13,-17,18,-1,6,13,0,-13,-40,-33
661,26,6,-20,-16,22,-6,13,13,0,-13,-40,-26
662,26,20,-6,-22,16,6,13,13,0,-13,-40,-26
663,26,26,0,-26,13,13,13,13,0,-13,-40,-26
664,20,26,6,-22,6,16,6,13,0,-13,-40,-26
665,26,26,0,-26,13,13,0,13,0,-13,-40,-40
666,20,24,4,-21,8,13,0,6,-6,-20,-46,-33
667,26,20,-6,-22,16,6,0,0,-13,-26,-53,-40
668,36,20,-16,-28,25,1,0,6,-13,-26,-53,-40
669,40,20,-20,-29,29,0,0,13,-13,-26,-53,-40
670,30,26,-4,-28,17,10,0,13,-6,-20,-40,-33
671,13,33,20,-22,-4,26,0,13,0,-13,-26,-26
672,20,17,-2,-18,10,6,0,13,-6,-26,-46,-40
673,6,6,0,-6,2,2,0,13,-13,-26,-40,-40
674,6,10,4,-8,1,6,0,13,-13,-20,-46,-33
675,6,6,0,-6,2,2,0,13,-13,-40,-53,-53
676,-6,-2,4,5,-5,0,0,6,-13,-20,-46,-46
677,-6,-6,0,6,-4,-4,0,0,-13,-26,-53,-40
678,9,2,-6,-5,8,-2,0,0,-13,-26,-53,-40
679,6,0,-6,-2,6,-4,0,0,-13,-26,-53,-40
680,2,2,0,-2,1,1,6,13,-13,-20,-40,-46
681,6,6,0,-6,2,2,13,26,-13,-13,-26,-53
682,20,16,-4,-17,12,5,20,13,-6,-20,-26,-53
683,46,33,-13,-40,29,9,26,26,-13,-26,-26,-53
684,46,20,-26,-33,36,-4,6,13,-20,-26,-20,-60
685,46,20,-26,-33,36,-4,0,13,-26,-26,-13,-66
686,46,24,-22,-34,34,0,13,13,-6,-26,-13,-66
687,40,13,-26,-26,33,-6,13,13,-13,-26,-13,-66
688,40,20,-20,-29,29,0,13,13,-20,-33,-20,-66
689,40,6,-33,-22,36,-13,13,13,-26,-40,-26,-66
690,42,4,-38,-22,40,-17,13,13,-13,-33,-20,-66
691,60,13,-46,-36,53,-17,13,13,-13,-26,-13,-66
692,73,16,-57,-44,65,-21,6,6,-13,-26,-13,-66
693,80,20,-60,-49,69,-20,0,13,-13,-26,-13,-66
694,73,26,-46,-49,60,-10,0,20,-13,-26,-13,-53
695,73,26,-46,-49,60,-10,13,26,-13,-26,-13,-66
696,70,24,-46,-46,58,-12,20,26,-13,-26,-13,-66
697,60,13,-46,-36,53,-17,13,26,-13,-26,-13,-66
698,60,6,-53,-33,56,-24,6,20,-20,-26,-20,-66
699,66,6,-60,-36,62,-26,13,13,-26,-26,-26,-66
700,50,-9,-60,-20,54,-34,-6,13,-33,-26,-26,-73
701,26,-33,-60,4,42,-46,0,13,-40,-26,-26,-80
702,24,-40,-64,8,44,-52,6,13,-40,-20,-40,-80
703,26,-40,-66,6,46,-53,13,13,-40,-13,-26,-80
704,40,-33,-73,-2,56,-53,0,13,-33,-6,-20,-73
705,53,-26,-80,-13,66,-53,0,13,-26,-13,-13,-66
706,50,-13,-64,-18,57,-38,13,13,-20,-6,-20,-60
707,53,-13,-66,-20,60,-40,13,13,-13,-13,-13,-53
708,60,-10,-70,-24,65,-41,13,20,-13,-6,-13,-53
709,66,-6,-73,-29,69,-40,13,26,-13,0,0,-53
710,44,-9,-53,-17,48,-32,13,20,-13,0,-13,-53
711,40,-13,-53,-13,46,-33,13,13,-13,0,0,-53
712,30,-22,-53,-4,41,-38,13,13,-20,0,-20,-60
713,26,-26,-53,0,40,-40,13,13,-26,0,-13,-66
714,24,-26,-50,1,37,-38,6,13,-26,-13,-13,-66
715,26,-20,-46,-2,36,-33,13,13,-26,0,-13,-66
716,22,-26,-49,2,36,-38,0,13,-26,-13,-26,-66
717,20,-20,-40,0,29,-30,0,13,-26,0,-13,-66
718,17,-29,-46,6,32,-38,6,6,-26,-6,-6,-66
719,13,-33,-46,10,29,-40,0,0,-26,-13,0,-66
720,20,-26,-46,4,33,-37,0,6,-26,-13,-20,-73
721,26,-26,-53,0,40,-40,13,13,-26,-13,-13,-80
722,36,-13,-49,-10,42,-32,13,13,-26,-13,-6,-73
723,53,-6,-60,-22,56,-33,0,13,-26,-13,0,-66
724,56,-6,-62,-24,58,-34,0,13,-26,-13,-6,-66
725,53,-6,-60,-22,56,-33,0,13,-26,-13,0,-66
726,53,4,-49,-28,50,-22,13,13,-26,-13,-6,-73
727,46,-13,-60,-16,53,-37,13,13,-26,-13,-13,-80
728,30,-6,-37,-12,33,-22,13,33,-26,-6,0,-60
729,26,-13,-40,-6,33,-26,13,26,-26,0,0,-66
730,26,-9,-36,-8,30,-22,13,20,-13,-6,-6,-66
731,20,-13,-33,-2,26,-24,13,13,-13,-13,-13,-80
732,26,6,-20,-16,22,-6,20,20,-13,-6,-6,-60
733,26,20,-6,-22,16,6,26,40,0,-13,-13,-53
734,36,29,-6,-32,21,10,26,33,0,-13,-6,-53
735,46,33,-13,-40,29,9,40,40,0,0,0,-53
736,49,37,-12,-42,30,12,33,33,13,-13,-6,-46
737,46,33,-13,-40,29,9,40,40,13,-13,-13,-53
738,37,24,-13,-30,25,5,40,60,13,-13,-13,-46
739,26,26,0,-26,13,13,53,66,26,0,0,-40
740,22,40,17,-30,2,28,66,73,40,13,13,-33
741,26,46,20,-36,2,33,66,66,40,13,26,-26
742,26,66,40,-46,-6,53,73,86,53,26,26,-20
743,33,73,40,-53,-4,56,80,93,53,40,26,-13
744,24,70,46,-46,-12,58,73,93,53,33,26,-20
745,26,66,40,-46,-6,53,80,93,53,26,26,-13
746,33,76,42,-54,-5,58,80,93,53,40,26,-6
747,33,73,40,-53,-4,56,80,93,53,40,26,-13
748,30,77,46,-53,-8,61,66,93,46,20,26,-20
749,33,73,40,-53,-4,56,66,93,40,26,26,-26
750,24,60,36,-41,-6,48,66,93,26,20,26,-26
751,26,66,40,-46,-6,53,66,93,26,26,26,-26
752,33,66,33,-49,0,49,66,93,26,20,26,-26
753,26,66,40,-46,-6,53,53,80,26,13,26,-26
754,24,50,26,-37,-1,38,53,80,26,13,33,-26
755,26,60,33,-42,-4,46,53,80,26,13,40,-26
756,24,60,36,-41,-6,48,40,80,20,20,40,-26
757,20,60,40,-40,-10,49,40,66,26,13,40,-26
758,29,62,33,-45,-2,48,33,66,26,26,40,-26
759,26,66,40,-46,-6,53,40,66,26,26,40,-26
760,29,69,40,-49,-5,54,53,60,20,26,46,-20
761,33,80,46,-56,-6,62,53,66,26,40,40,-13
762,42,84,41,-62,0,62,53,73,20,33,46,-13
763,60,93,33,-76,13,62,53,80,26,40,53,0
764,57,113,56,-85,0,84,33,66,20,40,53,0
765,53,120,66,-86,-6,93,40,80,13,40,66,0
766,69,129,60,-98,4,94,26,66,20,40,53,20
767,86,140,53,-113,16,96,26,66,13,40,53,13
768,84,140,56,-112,13,97,33,73,13,46,53,6
769,80,126,46,-102,16,86,40,66,13,40,53,0
770,77,113,36,-94,20,74,26,66,6,46,46,-6
771,60,86,26,-73,16,56,26,53,13,40,53,0
772,69,77,8,-73,30,42,6,46,-6,26,33,-13
773,66,60,-6,-62,36,26,0,26,-13,13,26,-26
774,69,56,-13,-62,41,21,0,26,-26,0,20,-26
775,66,60,-6,-62,36,26,-13,13,-26,0,0,-40
776,69,46,-22,-57,45,12,-20,6,-33,-6,6,-33
777,66,46,-20,-56,42,13,-26,0,-26,0,0,-40
778,66,30,-36,-48,50,-2,-26,-13,-46,-13,-20,-53
779,60,20,-40,-40,49,-10,-26,-13,-53,-26,-26,-53
780,77,13,-64,-45,70,-25,-26,-13,-53,-26,-26,-53
781,73,13,-60,-42,66,-24,-26,-13,-66,-40,-40,-66
782,73,2,-70,-37,72,-34,-40,-13,-66,-40,-33,-66
783,73,0,-73,-36,73,-37,-26,-13,-66,-40,-40,-80
784,66,6,-60,-36,62,-26,-40,-13,-66,-46,-40,-80
785,60,0,-60,-29,60,-30,-40,0,-66,-53,-40,-80
786,50,-20,-70,-14,60,-45,-33,-6,-66,-53,-46,-86
787,40,-33,-73,-2,56,-53,-40,-13,-66,-53,-53,-93
788,40,-30,-70,-4,54,-50,-33,-13,-66,-53,-46,-86
789,40,-26,-66,-6,53,-46,-40,-13,-66,-53,-40,-80
790,46,-29,-76,-8,61,-53,-46,-6,-73,-60,-46,-86
791,46,-33,-80,-6,62,-57,-53,-13,-80,-66,-53,-93
792,30,-26,-57,-1,44,-42,-33,-6,-80,-66,-40,-86
793,33,-26,-60,-2,46,-44,-26,0,-66,-66,-40,-93
794,40,-26,-66,-6,53,-46,-26,0,-80,-80,-46,-100
795,53,-26,-80,-13,66,-53,-26,0,-80,-80,-53,-106
796,53,-40,-93,-6,73,-66,-20,-6,-86,-80,-73,-100
797,53,-46,-100,-2,76,-73,-26,-13,-93,-80,-66,-93
798,57,-40,-97,-8,77,-69,-26,0,-86,-73,-66,-100
799,53,-33,-86,-9,69,-60,-13,13,-80,-66,-66,-106
800,46,-33,-80,-6,62,-57,-6,20,-80,-66,-60,-100
801,46,-26,-73,-9,60,-50,-13,26,-80,-66,-53,-93
802,56,-22,-78,-16,66,-50,-20,6,-80,-66,-60,-93
803,60,-20,-80,-20,69,-50,-13,13,-80,-66,-53,-93
804,62,-20,-82,-21,72,-52,-13,13,-80,-73,-53,-100
805,66,-20,-86,-22,76,-53,-13,13,-80,-80,-53,-106
806,60,-24,-84,-17,72,-54,-13,13,-73,-60,-66,-93
807,60,-13,-73,-22,66,-44,-13,13,-66,-66,-53,-106
808,60,-20,-80,-20,69,-50,-26,13,-66,-66,-53,-100
809,66,-26,-93,-20,80,-60,-26,0,-66,-66,-53,-106
810,76,-10,-86,-32,81,-49,-13,13,-66,-66,-53,-100
811,73,-13,-86,-29,80,-50,-13,13,-66,-53,-53,-93
812,64,-20,-84,-21,73,-52,-13,13,-66,-66,-53,-113
813,60,-26,-86,-16,73,-57,-13,13,-66,-66,-53,-106
814,46,-36,-82,-5,64,-60,-6,13,-60,-53,-53,-106
815,46,-33,-80,-6,62,-57,0,13,-53,-53,-53,-106
816,66,-20,-86,-22,76,-53,0,13,-53,-46,-46,-100
817,80,-13,-93,-33,86,-53,0,13,-40,-40,-40,-93
818,77,-13,-90,-32,84,-52,0,20,-33,-46,-33,-86
819,73,-20,-93,-26,82,-57,0,26,-26,-53,-26,-80
820,62,-33,-96,-14,78,-65,-6,20,-40,-46,-26,-73
821,66,-26,-93,-20,80,-60,-13,13,-40,-53,-26,-80
822,62,-30,-93,-16,77,-62,-6,6,-40,-53,-33,-86
823,60,-33,-93,-13,76,-64,0,0,-40,-53,-40,-93
824,57,-49,-106,-4,81,-78,0,0,-60,-53,-53,-106
825,46,-60,-106,6,76,-84,0,0,-53,-66,-53,-106
826,56,-60,-116,2,85,-88,-6,0,-46,-53,-53,-106
827,53,-60,-113,4,82,-86,0,0,-40,-53,-53,-106
828,57,-60,-117,1,86,-89,-13,6,-46,-46,-53,-106
829,53,-60,-113,4,82,-86,0,13,-53,-40,-53,-106
830,40,-62,-102,12,70,-82,0,13,-53,-33,-66,-100
831,33,-66,-100,17,66,-84,-13,13,-66,-40,-66,-106
832,24,-73,-97,25,60,-85,0,13,-60,-46,-66,-113
833,13,-80,-93,33,53,-86,0,13,-66,-40,-66,-106
834,6,-84,-90,38,48,-88,0,13,-73,-46,-66,-113
835,6,-80,-86,37,46,-84,0,13,-80,-40,-66,-106
836,9,-80,-89,36,49,-85,0,13,-73,-40,-66,-93
837,13,-86,-100,37,56,-93,0,13,-66,-40,-66,-106
838,10,-80,-90,34,50,-85,0,6,-66,-40,-66,-106
839,13,-80,-93,33,53,-86,0,13,-66,-40,-66,-106
840,6,-80,-86,37,46,-84,-6,0,-73,-46,-73,-113
841,-6,-80,-73,44,33,-77,-13,0,-80,-53,-80,-120
842,-13,-84,-70,49,28,-77,-13,0,-86,-60,-80,-120
843,-6,-73,-66,40,29,-70,-13,0,-80,-66,-80,-120
844,0,-80,-80,40,40,-80,-6,0,-80,-66,-80,-120
845,6,-73,-80,33,42,-77,0,0,-80,-66,-80,-120
846,4,-80,-84,38,44,-82,0,6,-80,-60,-80,-120
847,6,-80,-86,37,46,-84,0,13,-80,-53,-80,-120
848,6,-73,-80,33,42,-77,0,13,-80,-53,-80,-120
849,6,-80,-86,37,46,-84,0,13,-80,-53,-80,-120
850,6,-80,-86,37,46,-84,0,13,-80,-53,-73,-120
851,6,-80,-86,37,46,-84,0,13,-80,-53,-66,-120
852,4,-80,-84,38,44,-82,6,20,-73,-53,-66,-120
853,6,-80,-86,37,46,-84,13,26,-66,-53,-66,-120
854,13,-77,-90,32,52,-84,13,26,-66,-46,-66,-120
855,26,-66,-93,20,60,-80,13,26,-66,-40,-66,-120
856,36,-60,-96,12,65,-78,20,26,-66,-40,-60,-113
857,46,-60,-106,6,76,-84,26,26,-53,-40,-66,-106
858,37,-57,-94,10,65,-76,26,26,-66,-40,-60,-100
859,26,-53,-80,13,53,-66,26,26,-66,-40,-66,-106
860,20,-62,-82,21,50,-73,26,26,-60,-46,-60,-106
861,20,-60,-80,20,49,-70,26,26,-53,-53,-53,-106
862,17,-69,-86,26,52,-78,26,26,-60,-46,-73,-113
863,13,-80,-93,33,53,-86,26,26,-66,-53,-80,-120
864,16,-84,-100,34,57,-92,20,26,-66,-53,-80,-120
865,20,-86,-106,33,62,-97,13,26,-66,-53,-80,-120
866,10,-93,-104,41,57,-98,13,26,-66,-53,-80,-113
867,13,-100,-113,44,62,-106,0,26,-80,-53,-80,-106
868,4,-102,-106,49,54,-105,13,26,-66,-53,-80,-113
869,0,-100,-100,50,49,-100,13,26,-66,-53,-80,-106
870,-6,-100,-93,53,42,-97,20,33,-60,-53,-80,-106
871,-13,-106,-93,60,40,-100,26,40,-53,-53,-80,-106
872,-22,-102,-80,62,28,-92,26,40,-53,-53,-80,-106
873,-20,-106,-86,64,33,-97,26,40,-53,-53,-80,-106
874,-20,-102,-82,61,30,-93,33,46,-46,-46,-73,-106
875,-20,-113,-93,66,36,-104,40,53,-40,-40,-66,-106
876,-13,-106,-93,60,40,-100,40,53,-40,-40,-66,-106
877,-6,-106,-100,57,46,-104,40,53,-40,-40,-66,-106
878,-6,-104,-97,56,45,-101,40,53,-46,-46,-73,-113
879,0,-106,-106,53,53,-106,40,53,-53,-53,-80,-120
880,-2,-106,-104,54,50,-105,53,53,-53,-53,-80,-120
881,0,-106,-106,53,53,-106,40,53,-53,-53,-80,-120
882,-9,-116,-106,62,48,-112,46,46,-53,-53,-73,-120
883,-6,-113,-106,60,49,-110,40,53,-53,-53,-66,-120
884,-13,-122,-109,68,48,-116,40,53,-60,-60,-73,-120
885,-13,-120,-106,66,46,-113,40,40,-66,-66,-80,-133
886,-10,-120,-109,65,49,-114,33,33,-66,-66,-80,-120
887,-6,-120,-113,64,53,-117,26,26,-66,-66,-80,-133
888,-16,-133,-117,74,50,-125,13,20,-66,-66,-80,-133
889,-20,-133,-113,77,46,-124,13,13,-66,-66,-80,-133
890,-20,-133,-113,77,46,-124,26,6,-66,-66,-80,-133
891,-20,-133,-113,77,46,-124,26,13,-66,-66,-80,-133
892,-26,-137,-110,82,41,-124,33,20,-60,-66,-80,-133
893,-20,-133,-113,77,46,-124,40,13,-53,-66,-80,-133
894,-13,-130,-117,72,52,-124,26,20,-53,-73,-80,-133
895,-6,-120,-113,64,53,-117,26,26,-53,-80,-80,-133
896,-10,-126,-116,69,52,-121,26,20,-60,-80,-80,-126
897,-13,-126,-113,70,49,-120,40,26,-53,-66,-66,-133
898,-10,-126,-116,69,52,-121,33,26,-66,-66,-66,-126
899,-13,-126,-113,70,49,-120,26,26,-53,-66,-80,-133
900,-9,-120,-110,65,50,-116,40,46,-46,-60,-80,-133
901,-13,-113,-100,64,42,-106,40,53,-40,-53,-80,-133
902,-4,-124,-120,64,57,-122,53,60,-46,-46,-80,-146
903,-6,-120,-113,64,53,-117,53,53,-40,-66,-80,-160
904,-10,-126,-116,69,52,-121,60,73,-33,-60,-93,-153
905,-13,-126,-113,70,49,-120,80,80,-13,-53,-80,-160
906,-16,-133,-117,74,50,-125,86,93,-20,-53,-80,-160
907,-26,-133,-106,80,40,-120,80,106,-13,-53,-80,-160
908,-26,-124,-97,76,34,-110,80,100,0,-40,-80,-166
909,-26,-120,-93,73,33,-106,93,106,0,-40,-93,-173
910,-17,-90,-73,54,28,-82,93,106,26,-20,-66,-160
911,0,-60,-60,30,29,-60,93,106,40,0,-53,-160
912,20,-30,-50,5,34,-41,100,113,33,6,-26,-133
913,46,6,-40,-26,42,-17,93,120,40,13,0,-120
914,50,20,-30,-34,40,-5,100,113,33,26,26,-86
915,60,46,-13,-53,36,16,93,120,26,40,66,-53
916,60,97,37,-78,10,66,93,126,53,73,106,-20
917,60,140,80,-100,-10,109,80,120,53,93,160,26
918,60,164,104,-112,-22,133,80,120,73,120,180,60
919,73,193,120,-133,-24,156,80,133,80,133,213,80
920,70,237,166,-153,-48,201,66,140,93,160,260,126
921,66,286,220,-176,-77,253,53,146,106,200,320,186
922,80,326,246,-202,-84,286,60,160,126,233,360,233
923,93,380,286,-236,-97,333,66,173,146,280,413,280
924,100,440,340,-269,-120,389,60,193,166,306,466,326
925,120,500,380,-309,-130,440,53,226,200,360,533,386
926,153,586,433,-369,-140,509,60,246,233,400,606,460
927,193,686,493,-440,-150,589,66,266,266,466,680,533
928,229,789,560,-509,-165,674,73,286,293,526,753,600
929,260,873,613,-566,-177,742,80,306,333,586,813,666
930,289,956,666,-622,-189,810,73,313,360,626,886,733
931,320,1060,740,-689,-210,900,66,320,386,680,960,800
932,330,1126,796,-728,-233,961,60,326,400,720,1013,873
933,346,1206,860,-776,-257,1033,53,320,413,746,1066,933
934,376,1277,901,-826,-262,1089,40,293,433,766,1106,1000
935,393,1346,953,-869,-280,1149,26,280,440,786,1133,1053
936,386,1380,993,-882,-304,1186,6,253,453,793,1140,1080
937,386,1346,960,-866,-286,1153,13,253,453,760,1093,1066
938,373,1253,880,-813,-253,1066,20,260,426,706,1020,1006
939,360,1093,733,-726,-186,913,53,266,386,613,853,906
940,320,904,584,-612,-132,744,60,266,333,486,680,793
941,273,693,420,-482,-73,556,80,253,266,360,480,666
942,226,526,300,-376,-37,413,86,213,200,253,320,560
943,193,400,206,-296,-6,302,93,173,146,173,200,466
944,186,269,82,-228,52,176,73,120,73,53,66,373
945,180,173,-6,-176,93,82,40,40,13,-26,-26,306
946,180,76,-104,-128,141,-14,-6,-33,-80,-133,-113,240
947,180,-20,-200,-80,189,-110,-66,-133,-173,-226,-200,173
948,186,-66,-253,-60,220,-160,-93,-180,-220,-266,-233,133
949,166,-86,-253,-40,209,-170,-93,-226,-253,-306,-253,120
950,124,-117,-241,-2,182,-180,-126,-253,-280,-340,-273,100
951,86,-133,-220,24,153,-177,-133,-280,-293,-346,-280,93
952,64,-153,-217,45,140,-185,-146,-313,-306,-360,-280,60
953,33,-186,-220,77,126,-204,-146,-333,-320,-360,-293,26
954,29,-184,-213,77,121,-198,-166,-340,-320,-386,-306,0
955,26,-186,-213,80,120,-200,-160,-346,-320,-386,-306,-26
956,26,-186,-213,80,120,-200,-166,-333,-306,-353,-293,-26
957,26,-186,-213,80,120,-200,-160,-333,-306,-333,-293,-40
958,6,-173,-180,84,93,-177,-153,-326,-286,-313,-273,-60
959,20,-153,-173,66,96,-164,-160,-333,-266,-293,-253,-53
960,29,-133,-162,52,96,-148,-180,-340,-273,-286,-240,-60
961,40,-133,-173,46,106,-153,-186,-333,-253,-266,-226,-66
962,42,-120,-162,38,102,-141,-186,-326,-253,-266,-220,-86
963,53,-113,-166,30,109,-140,-200,-306,-253,-253,-213,-93
964,66,-117,-184,25,125,-150,-200,-300,-246,-246,-220,-100
965,73,-106,-180,17,126,-144,-200,-280,-240,-240,-200,-93
966,77,-97,-174,10,125,-136,-180,-240,-206,-206,-200,-93
967,73,-100,-173,13,122,-137,-160,-213,-200,-200,-186,-106
968,70,-113,-184,21,126,-149,-140,-186,-186,-186,-180,-120
969,73,-113,-186,20,129,-150,-120,-160,-173,-173,-173,-120
970,69,-106,-176,18,122,-141,-93,-140,-166,-166,-173,-133
971,73,-106,-180,17,126,-144,-80,-106,-146,-173,-173,-133
972,73,-104,-177,16,125,-141,-66,-93,-146,-160,-160,-146
973,73,-106,-180,17,126,-144,-53,-66,-146,-146,-160,-146
974,89,-110,-200,10,144,-156,-33,-46,-133,-153,-166,-146
975,100,-100,-200,0,149,-150,-40,-40,-120,-146,-160,-146
976,102,-97,-200,-2,150,-149,-20,-33,-113,-140,-153,-153
977,100,-80,-180,-9,140,-130,0,-13,-93,-120,-133,-160
978,93,-89,-182,-1,137,-136,-6,0,-100,-120,-140,-160
979,93,-86,-180,-2,136,-133,-13,0,-93,-120,-146,-160
980,77,-93,-170,8,124,-132,0,6,-93,-106,-133,-166
981,66,-93,-160,13,113,-126,0,0,-93,-93,-133,-160
982,60,-86,-146,13,102,-117,-6,0,-73,-100,-120,-160
983,46,-86,-133,20,89,-110,-13,0,-80,-93,-120,-160
984,40,-96,-136,28,88,-116,-6,6,-66,-80,-113,-146
985,33,-86,-120,26,76,-104,-13,0,-66,-80,-120,-146
986,36,-77,-113,21,74,-96,-6,6,-66,-73,-106,-146
987,33,-80,-113,24,73,-97,0,13,-66,-66,-93,-133
988,40,-89,-129,25,84,-109,-13,13,-60,-66,-100,-126
989,33,-100,-133,33,82,-117,0,0,-53,-66,-93,-133
990,33,-90,-124,29,78,-108,0,6,-53,-46,-106,-133
991,33,-93,-126,30,80,-110,-13,0,-53,-53,-93,-133
992,29,-93,-122,32,76,-108,6,6,-73,-46,-100,-126
993,26,-100,-126,37,76,-113,13,13,-66,-40,-93,-133
994,29,-93,-122,32,76,-108,6,6,-66,-46,-93,-113
995,40,-93,-133,26,86,-113,0,0,-66,-53,-93,-120
996,46,-93,-140,24,93,-117,20,6,-66,-53,-100,-120
997,46,-93,-140,24,93,-117,26,0,-66,-40,-93,-120
998,37,-89,-126,26,81,-108,0,-6,-73,-53,-100,-120
999,40,-93,-133,26,86,-113,0,-13,-80,-53,-106,-120
1000,33,-96,-129,32,81,-113,6,-6,-73,-60,-106,-120
1001,33,-100,-133,33,82,-117,13,0,-66,-53,-106,-120
1002,46,-100,-146,26,96,-124,13,0,-66,-46,-106,-106
1003,46,-100,-146,26,96,-124,13,-13,-66,-40,-106,-120
1004,53,-97,-150,22,101,-124,20,-6,-60,-40,-106,-120
1005,53,-93,-146,20,100,-120,13,-13,-80,-40,-106,-120
1006,56,-77,-133,10,94,-105,13,-20,-60,-40,-100,-106
1007,60,-66,-126,4,93,-97,13,-13,-66,-40,-93,-106
1008,44,-73,-117,14,80,-96,13,-13,-66,-33,-93,-106
1009,40,-73,-113,17,76,-93,13,-13,-66,-26,-93,-106
1010,49,-66,-116,9,82,-92,6,-20,-66,-40,-100,-113
1011,40,-73,-113,17,76,-93,0,-13,-66,-53,-106,-120
1012,30,-86,-117,28,73,-102,6,-20,-73,-60,-100,-120
1013,20,-93,-113,37,66,-104,0,-26,-80,-66,-106,-120
1014,20,-93,-113,37,66,-104,0,-20,-73,-66,-106,-126
1015,20,-93,-113,37,66,-104,0,-13,-66,-66,-120,-120
1016,6,-109,-116,52,61,-113,6,-6,-73,-66,-106,-120
1017,-6,-113,-106,60,49,-110,13,0,-66,-66,-106,-120
1018,-13,-110,-97,62,41,-104,20,6,-60,-60,-106,-120
1019,-6,-113,-106,60,49,-110,26,13,-53,-53,-106,-120
1020,-10,-110,-100,61,44,-105,26,13,-53,-46,-100,-106
1021,-6,-106,-100,57,46,-104,26,13,-53,-40,-93,-106
1022,-22,-116,-93,69,34,-105,26,20,-60,-40,-100,-113
1023,-33,-113,-80,73,22,-97,26,26,-40,-40,-80,-93
1024,-30,-104,-73,68,21,-89,13,26,-40,-40,-86,-100
1025,-26,-100,-73,64,22,-86,13,13,-40,-40,-93,-106
1026,-17,-97,-80,57,30,-89,33,26,-33,-46,-93,-106
1027,-6,-93,-86,50,40,-90,26,26,-26,-53,-93,-106
1028,0,-77,-77,38,38,-77,20,26,-26,-40,-86,-100
1029,0,-73,-73,37,36,-73,26,26,-26,-40,-80,-93
1030,-6,-73,-66,40,29,-70,33,26,-26,-40,-80,-100
1031,-6,-80,-73,44,33,-77,40,26,-26,-40,-80,-106
1032,2,-70,-73,34,37,-72,40,26,-26,-46,-86,-106
1033,6,-66,-73,30,40,-70,40,26,-26,-53,-93,-106
1034,16,-64,-80,24,48,-72,40,26,-26,-46,-86,-113
1035,33,-53,-86,10,60,-70,40,26,-26,-40,-80,-120
1036,29,-66,-96,18,62,-81,46,33,-20,-40,-86,-126
1037,40,-66,-106,13,73,-86,53,40,-13,-40,-93,-133
1038,29,-69,-98,20,64,-84,46,33,-20,-46,-93,-133
1039,33,-66,-100,17,66,-84,40,26,-26,-53,-93,-133
1040,24,-76,-100,26,61,-88,40,26,-26,-53,-93,-140
1041,20,-86,-106,33,62,-97,40,26,-26,-53,-93,-146
1042,30,-80,-110,25,70,-96,40,26,-33,-53,-93,-140
1043,26,-80,-106,26,66,-93,40,26,-26,-53,-80,-133
1044,20,-70,-90,25,54,-81,40,20,-33,-53,-100,-140
1045,6,-73,-80,33,42,-77,40,26,-40,-53,-93,-133
1046,4,-80,-84,38,44,-82,46,20,-33,-46,-93,-140
1047,0,-80,-80,40,40,-80,53,26,-26,-40,-93,-133
1048,0,-80,-80,40,40,-80,53,26,-26,-40,-93,-120
1049,-6,-80,-73,44,33,-77,53,26,-26,-40,-93,-133
1050,-20,-77,-57,49,18,-68,46,26,-20,-40,-93,-133
1051,-26,-80,-53,53,13,-66,40,26,-13,-40,-93,-133
1052,-20,-73,-53,46,16,-64,40,26,-13,-20,-86,-120
1053,-13,-60,-46,37,16,-53,40,26,-26,-26,-80,-120
1054,-9,-62,-53,36,21,-58,40,26,-6,-33,-86,-126
1055,-13,-66,-53,40,20,-60,40,26,-13,-40,-93,-133
1056,-26,-76,-49,52,10,-62,40,26,-20,-40,-93,-126
1057,-33,-86,-53,60,9,-70,26,26,-26,-40,-93,-133
1058,-26,-80,-53,53,13,-66,26,26,-33,-40,-93,-120
1059,-20,-80,-60,50,20,-70,40,26,-26,-40,-93,-120
1060,-22,-86,-64,54,20,-76,33,26,-13,-33,-93,-120
1061,-20,-73,-53,46,16,-64,26,26,0,-26,-93,-133
1062,-6,-73,-66,40,29,-70,13,26,-13,-33,-93,-120
1063,-13,-73,-60,44,22,-66,13,26,0,-26,-80,-120
1064,-20,-76,-56,48,17,-66,13,33,0,-40,-80,-120
1065,-26,-73,-46,50,9,-60,13,40,0,-40,-80,-120
1066,-33,-82,-49,58,8,-66,26,33,0,-46,-86,-120
1067,-33,-93,-60,64,13,-77,13,26,-13,-53,-93,-120
1068,-33,-93,-60,64,13,-77,13,26,-6,-40,-93,-120
1069,-33,-93,-60,64,13,-77,13,26,-13,-53,-93,-120
1070,-33,-93,-60,64,13,-77,13,26,-20,-40,-86,-120
1071,-40,-93,-53,66,6,-73,13,26,0,-40,-80,-120
1072,-42,-86,-44,65,0,-65,13,26,-6,-46,-73,-113
1073,-46,-86,-40,66,-4,-64,13,26,0,-26,-66,-106
1074,-26,-77,-50,52,12,-64,13,26,-6,-33,-73,-113
1075,-26,-80,-53,53,13,-66,13,26,-13,-40,-80,-120
1076,-10,-46,-36,29,12,-41,6,40,6,-33,-60,-100
1077,-6,-40,-33,24,13,-37,13,40,13,-26,-53,-106
1078,-16,-46,-30,32,6,-38,0,46,6,-26,-60,-100
1079,-6,-33,-26,20,9,-30,0,40,13,-26,-53,-93
1080,2,-30,-33,14,17,-32,6,40,0,-26,-53,-100
1081,0,-26,-26,13,13,-26,13,40,-13,-26,-53,-106
1082,16,-20,-36,2,25,-28,20,33,0,-26,-46,-93
1083,13,-20,-33,4,22,-26,26,26,0,-26,-53,-93
1084,13,-22,-36,5,24,-29,6,26,0,-26,-53,-100
1085,13,-26,-40,6,26,-33,13,26,-13,-26,-53,-106
1086,20,-22,-42,1,30,-33,20,20,-13,-26,-60,-100
1087,13,-26,-40,6,26,-33,26,13,-13,-26,-53,-93
1088,16,-13,-29,-1,22,-21,33,13,-13,-20,-46,-86
1089,13,0,-13,-6,13,-6,26,13,-13,-13,-26,-80
1090,20,4,-16,-12,17,-6,20,6,-20,0,-33,-80
1091,20,0,-20,-9,20,-10,13,0,-26,-13,-26,-80
1092,10,-6,-17,-1,13,-12,26,6,-33,-20,-46,-73
1093,0,-6,-6,4,2,-6,13,0,-40,-13,-40,-80
1094,-9,-26,-17,18,4,-22,20,0,-40,-26,-40,-86
1095,-20,-33,-13,26,-4,-24,26,13,-26,-13,-40,-93
1096,-26,-36,-9,32,-9,-22,20,0,-26,-13,-40,-86
1097,-26,-33,-6,30,-10,-20,13,0,-40,-13,-40,-80
1098,-17,-33,-16,25,-1,-25,20,6,-26,-13,-40,-73
1099,-6,-26,-20,17,6,-24,26,13,-26,-13,-26,-66
1100,0,-22,-22,12,10,-22,20,6,-26,-20,-33,-73
1101,6,-26,-33,10,20,-30,13,0,-26,-13,-26,-66
1102,4,-26,-30,12,17,-29,6,6,-20,-6,-26,-73
1103,13,-13,-26,0,20,-20,0,13,-13,0,-26,-66
1104,6,-22,-29,8,17,-26,0,13,-20,0,-26,-66
1105,6,-26,-33,10,20,-30,0,13,-26,0,-26,-66
1106,29,-6,-36,-10,32,-21,6,26,0,0,-20,-60
1107,33,6,-26,-20,29,-10,13,40,0,13,-13,-53
1108,49,16,-33,-32,41,-9,20,33,0,20,-13,-33
1109,46,26,-20,-36,33,2,26,26,13,26,0,-40
1110,40,17,-22,-28,30,-2,20,33,6,26,-20,-46
1111,46,20,-26,-33,36,-4,13,40,0,26,-13,-40
1112,46,22,-24,-34,34,-1,20,33,6,20,-13,-40
1113,46,20,-26,-33,36,-4,26,26,13,13,-13,-40
1114,33,30,-2,-32,17,13,20,20,13,13,-13,-40
1115,33,33,0,-33,16,16,13,13,13,13,0,-40
1116,36,33,-2,-34,18,14,6,13,13,20,-6,-33
1117,26,33,6,-29,9,20,0,13,13,13,0,-40
1118,24,36,12,-29,5,24,0,6,13,20,6,-40
1119,26,53,26,-40,0,40,0,0,13,26,13,-26
1120,26,57,30,-41,-2,44,0,-13,13,26,13,-26
1121,26,66,40,-46,-6,53,0,0,13,26,26,-26
1122,24,76,52,-49,-14,64,13,6,26,46,26,-26
1123,26,93,66,-60,-20,80,26,13,26,53,26,-13
1124,40,100,60,-69,-10,80,20,26,13,53,40,-6
1125,26,106,80,-66,-26,93,26,26,13,53,40,0
1126,42,113,70,-77,-14,92,20,20,26,46,40,0
1127,46,120,73,-82,-13,96,13,13,13,40,40,0
1128,56,142,86,-98,-16,114,6,13,33,60,53,6
1129,73,146,73,-109,0,109,0,13,26,66,53,0
1130,70,146,76,-108,-2,110,0,6,26,60,46,13
1131,53,146,93,-100,-20,120,0,0,13,66,53,13
1132,33,133,100,-82,-33,116,-6,0,20,46,46,13
1133,13,120,106,-66,-46,113,-26,0,26,53,53,13
1134,20,124,104,-72,-42,113,-26,-20,26,53,60,20
1135,13,120,106,-66,-46,113,-26,-13,26,53,66,13
1136,6,122,116,-64,-54,118,-26,-26,26,60,66,20
1137,13,126,113,-69,-50,120,-26,-26,26,66,80,26
1138,4,124,120,-64,-58,121,-26,-6,20,80,73,40
1139,0,133,133,-66,-66,133,-26,-13,26,80,80,40
1140,13,142,129,-77,-58,136,-20,-13,33,80,86,33
1141,26,160,133,-93,-53,146,-26,-13,40,80,93,40
1142,22,182,160,-102,-69,170,-20,-6,40,80,113,46
1143,33,200,166,-116,-66,182,-13,0,40,93,120,66
1144,40,204,164,-121,-62,184,-20,-6,33,93,113,60
1145,40,206,166,-122,-64,186,-26,-13,26,93,120,53
1146,49,220,170,-134,-61,194,-33,-13,33,86,120,73
1147,60,246,186,-153,-64,216,-40,-13,40,93,133,80
1148,69,262,193,-165,-62,228,-40,-13,26,106,146,93
1149,80,273,193,-176,-57,233,-40,-13,26,120,146,93
1150,86,293,206,-189,-60,249,-40,-20,33,126,166,106
1151,93,293,200,-193,-53,246,-40,-26,40,120,173,106
1152,93,300,206,-196,-57,253,-33,-26,40,126,173,120
1153,93,300,206,-196,-57,253,-40,-26,40,133,173,120
1154,93,309,216,-201,-61,262,-33,-26,46,146,193,140
1155,93,320,226,-206,-66,273,-26,-26,53,146,200,146
1156,86,329,242,-208,-78,285,-33,-20,46,160,200,146
1157,93,340,246,-216,-77,293,-40,-13,53,173,213,160
1158,97,344,246,-220,-74,294,-40,-20,53,166,206,160
1159,93,333,240,-213,-73,286,-40,-26,53,173,200,160
1160,93,344,250,-218,-78,297,-40,-20,53,173,213,173
1161,93,340,246,-216,-77,293,-40,-13,53,173,213,173
1162,84,340,256,-212,-86,297,-46,-33,53,166,213,166
1163,80,340,260,-209,-90,300,-53,-26,53,160,226,160
1164,80,333,253,-206,-86,293,-53,-26,53,166,213,166
1165,80,333,253,-206,-86,293,-53,-26,53,160,226,160
1166,80,346,266,-213,-93,306,-53,-26,53,166,213,160
1167,86,346,260,-216,-86,302,-53,-26,66,173,213,160
1168,84,346,262,-214,-89,304,-46,-33,73,180,220,180
1169,86,353,266,-220,-90,309,-40,-40,80,186,226,186
1170,86,366,280,-226,-97,322,-40,-40,80,180,226,186
1171,86,366,280,-226,-97,322,-53,-53,80,186,226,186
1172,102,366,264,-234,-81,314,-53,-53,80,180,233,180
1173,93,360,266,-226,-86,313,-53,-53,80,173,226,186
1174,93,362,269,-228,-88,316,-60,-53,86,180,240,193
1175,106,386,280,-246,-86,333,-66,-40,93,186,253,200
1176,116,393,277,-254,-81,334,-66,-46,93,193,260,206
1177,140,400,260,-269,-60,329,-66,-40,93,200,266,213
1178,140,404,264,-272,-62,333,-66,-40,100,206,266,213
1179,133,406,273,-269,-70,340,-66,-26,106,213,280,226
1180,142,409,266,-276,-62,337,-66,-40,100,206,286,226
1181,146,413,266,-280,-60,340,-66,-40,93,200,293,226
1182,146,416,269,-281,-61,342,-66,-40,93,200,286,226
1183,146,420,273,-282,-64,346,-66,-40,93,213,280,226
1184,140,406,266,-273,-64,336,-73,-40,100,186,280,220
1185,140,400,260,-269,-60,329,-80,-40,106,186,280,213
1186,126,404,277,-265,-76,340,-73,-33,106,193,273,226
1187,120,400,280,-260,-80,340,-66,-26,106,186,266,226
1188,120,397,277,-258,-78,337,-66,-40,106,193,266,226
1189,113,393,280,-253,-84,336,-66,-53,120,186,280,226
1190,120,396,276,-257,-78,336,-66,-40,120,186,273,226
1191,120,400,280,-260,-80,340,-66,-53,120,186,280,226
1192,113,402,289,-257,-88,345,-66,-40,120,193,273,220
1193,120,413,293,-266,-86,353,-53,-40,120,200,280,226
1194,122,413,290,-268,-84,352,-60,-33,120,193,286,220
1195,133,413,280,-273,-73,346,-53,-26,120,186,280,213
1196,136,420,284,-277,-74,352,-60,-40,113,193,273,213
1197,133,420,286,-276,-77,353,-53,-40,106,200,266,213
1198,130,410,280,-270,-74,345,-66,-26,106,186,260,220
1199,126,406,280,-266,-77,342,-66,-26,106,186,253,213
1200,126,397,270,-261,-72,333,-53,-26,106,200,266,206
1201,120,393,273,-256,-77,333,-53,-26,106,186,266,200
1202,124,389,265,-256,-70,326,-60,-20,100,193,273,206
1203,126,393,266,-260,-70,329,-66,-13,93,200,280,213
1204,124,389,265,-256,-70,326,-66,-20,86,193,260,213
1205,120,386,266,-253,-73,326,-66,-26,80,173,253,200
1206,122,380,257,-250,-68,318,-66,-26,80,193,253,200
1207,120,373,253,-246,-66,313,-66,-26,80,186,253,200
1208,126,369,242,-248,-58,305,-60,-26,86,186,246,206
1209,126,373,246,-249,-60,309,-53,-13,93,186,253,200
1210,117,366,249,-241,-66,308,-40,0,93,193,253,200
1211,113,360,246,-236,-66,302,-40,13,93,200,240,200
1212,110,350,240,-230,-65,294,-33,13,93,180,240,206
1213,113,340,226,-226,-57,282,-26,13,80,173,240,200
1214,100,333,233,-216,-66,282,-33,13,100,166,226,200
1215,106,333,226,-220,-60,280,-40,13,93,160,226,186
1216,106,336,229,-221,-61,282,-33,0,93,160,233,193
1217,106,340,233,-222,-64,286,-40,0,106,160,226,200
1218,96,322,226,-209,-65,274,-33,6,93,146,226,193
1219,100,320,220,-209,-60,269,-26,13,106,146,213,200
1220,97,326,229,-212,-66,277,-26,13,86,140,206,186
1221,86,313,226,-200,-70,269,-13,26,93,133,200,186
1222,100,313,213,-206,-57,262,-26,26,73,140,186,186
1223,93,300,206,-196,-57,253,-13,26,80,133,186,173
1224,93,293,200,-193,-53,246,-13,26,86,133,180,166
1225,100,293,193,-196,-46,242,-13,26,93,133,160,160
1226,109,296,186,-202,-38,241,-20,40,86,133,180,166
1227,120,293,173,-206,-26,233,-13,40,80,133,173,160
1228,120,296,176,-208,-28,236,-6,46,86,133,153,146
1229,120,286,166,-202,-24,226,0,53,93,133,146,146
1230,113,270,157,-192,-22,213,0,46,86,133,146,126
1231,106,253,146,-180,-20,200,0,40,80,120,133,120
1232,93,253,160,-173,-33,206,6,40,80,120,133,120
1233,93,240,146,-166,-26,193,13,40,80,120,133,106
1234,80,226,146,-153,-33,186,13,53,73,120,113,106
1235,80,213,133,-146,-26,173,13,53,66,120,106,93
1236,70,197,126,-133,-28,161,0,53,66,106,93,93
1237,66,186,120,-126,-26,153,0,53,66,106,93,80
1238,53,170,117,-112,-32,144,6,53,73,106,80,80
1239,33,153,120,-93,-44,136,13,53,80,106,80,66
1240,40,153,113,-96,-37,133,13,53,86,106,66,66
1241,46,153,106,-100,-30,129,13,53,80,106,66,53
1242,53,156,102,-104,-25,129,20,53,93,113,66,53
1243,46,153,106,-100,-30,129,26,66,80,106,66,53
1244,46,146,100,-96,-26,122,20,53,86,100,53,40
1245,46,133,86,-89,-20,109,26,53,93,93,53,40
1246,44,120,76,-81,-16,97,26,53,93,100,46,26
1247,40,100,60,-69,-10,80,26,53,93,93,53,26
1248,46,102,56,-74,-5,78,33,46,93,93,40,26
1249,53,100,46,-76,2,73,40,53,93,93,40,13
1250,50,102,52,-76,-1,77,33,40,93,93,46,13
1251,53,100,46,-76,2,73,26,53,93,93,40,13
1252,44,96,52,-69,-4,73,33,46,86,100,40,6
1253,26,93,66,-60,-20,80,40,53,93,93,40,13
1254,29,80,50,-54,-10,65,33,46,86,86,26,0
1255,33,80,46,-56,-6,62,40,53,80,80,26,0
1256,42,80,37,-61,2,58,33,46,80,80,26,-6
1257,66,86,20,-76,22,53,26,40,80,80,26,-13
1258,56,80,24,-68,16,52,40,53,73,73,20,-6
1259,53,73,20,-62,16,46,53,66,66,80,26,-13
1260,60,66,6,-62,26,36,53,73,66,80,26,-13
1261,53,60,6,-56,22,33,40,80,66,80,26,-13
1262,50,46,-4,-48,26,21,40,66,53,73,13,-26
1263,46,40,-6,-42,26,16,40,66,53,80,13,-26
1264,46,30,-16,-38,30,6,40,60,53,73,13,-26
1265,46,20,-26,-33,36,-4,53,53,53,66,0,-26
1266,53,17,-36,-34,44,-9,53,60,46,60,-6,-46
1267,53,13,-40,-33,46,-13,53,66,40,53,-13,-53
1268,56,9,-46,-32,50,-18,60,66,53,60,-20,-46
1269,53,0,-53,-26,53,-26,53,66,53,53,-13,-53
1270,53,-6,-60,-22,56,-33,53,66,46,46,-20,-53
1271,53,0,-53,-26,53,-26,53,66,53,40,-26,-53
1272,50,-6,-57,-21,53,-32,53,60,40,46,-20,-53
1273,40,-13,-53,-13,46,-33,53,53,40,40,-26,-53
1274,33,-20,-53,-6,42,-37,60,53,40,40,-33,-60
1275,40,-33,-73,-2,56,-53,53,53,40,13,-40,-66
1276,26,-33,-60,4,42,-46,53,53,40,13,-40,-60
1277,26,-40,-66,6,46,-53,53,53,26,13,-40,-66
1278,26,-33,-60,4,42,-46,53,53,40,13,-46,-73
1279,13,-40,-53,13,33,-46,53,53,40,13,-53,-80
1280,17,-44,-61,13,38,-53,60,53,26,13,-46,-80
1281,13,-46,-60,17,36,-53,53,53,26,0,-53,-80
1282,6,-46,-53,20,29,-50,46,40,20,13,-60,-93
1283,6,-53,-60,24,33,-57,40,40,13,0,-66,-93
1284,10,-60,-70,25,40,-65,33,40,13,-6,-66,-93
1285,13,-60,-73,24,42,-66,26,40,13,-13,-80,-93
1286,20,-60,-80,20,49,-70,33,26,6,-20,-80,-93
1287,20,-60,-80,20,49,-70,40,40,13,-13,-66,-93
1288,13,-66,-80,26,46,-73,33,20,13,-13,-73,-93
1289,13,-66,-80,26,46,-73,26,26,13,0,-66,-93
1290,20,-60,-80,20,49,-70,26,26,6,-13,-73,-93
1291,20,-66,-86,24,53,-77,26,26,0,-13,-80,-93
1292,13,-69,-82,28,48,-76,26,33,0,-13,-80,-93
1293,6,-73,-80,33,42,-77,26,26,0,-13,-80,-93
1294,22,-73,-96,25,58,-85,33,20,6,-13,-80,-93
1295,26,-73,-100,24,62,-86,40,13,13,0,-80,-93
1296,33,-70,-104,18,68,-88,46,13,13,-6,-80,-93
1297,46,-66,-113,10,80,-90,53,26,13,0,-80,-93
1298,53,-64,-117,5,85,-90,53,13,-6,0,-93,-113
1299,53,-66,-120,6,86,-93,53,13,0,0,-80,-106
1300,44,-80,-124,18,84,-102,46,20,0,0,-93,-106
1301,33,-86,-120,26,76,-104,40,13,0,0,-93,-120
1302,26,-90,-117,32,72,-104,40,13,0,-6,-93,-100
1303,26,-86,-113,30,69,-100,40,13,0,-13,-93,-106
1304,36,-77,-113,21,74,-96,40,0,-6,-13,-86,-113
1305,26,-86,-113,30,69,-100,40,0,-13,-13,-93,-120
1306,20,-93,-113,37,66,-104,40,0,-6,-20,-100,-120
1307,13,-86,-100,37,56,-93,40,0,-13,-13,-93,-120
1308,20,-86,-106,33,62,-97,33,0,-13,-13,-100,-126
1309,13,-93,-106,40,60,-100,40,0,-13,-13,-93,-120
1310,13,-93,-106,40,60,-100,33,0,-13,-20,-100,-126
1311,13,-93,-106,40,60,-100,26,0,-13,-26,-106,-133
1312,10,-96,-106,42,58,-101,33,0,-13,-20,-100,-126
1313,13,-93,-106,40,60,-100,40,0,-13,-13,-93,-120
1314,9,-93,-102,42,56,-98,33,-6,-13,-13,-93,-120
1315,13,-86,-100,37,56,-93,26,-13,-13,-13,-106,-120
1316,6,-96,-102,45,54,-100,20,-13,-13,-13,-93,-113
1317,6,-93,-100,44,53,-97,26,-13,-13,-13,-106,-106
1318,6,-97,-104,45,54,-101,6,-13,-6,-13,-106,-106
1319,0,-93,-93,46,46,-93,0,-13,0,-26,-106,-106
1320,2,-93,-96,45,49,-94,13,-13,-6,-13,-113,-113
1321,13,-93,-106,40,60,-100,13,-13,-13,-13,-120,-120
1322,22,-86,-109,32,65,-98,6,-13,-13,-20,-120,-120
1323,40,-86,-126,24,82,-106,0,-13,-13,-26,-120,-120
1324,36,-80,-116,22,76,-98,0,-6,-13,-20,-120,-113
1325,40,-80,-120,20,80,-100,0,0,-13,-13,-120,-106
1326,33,-93,-126,30,80,-110,6,0,-6,-13,-120,-106
1327,33,-100,-133,33,82,-117,13,0,0,-13,-120,-106
1328,42,-90,-133,24,88,-112,13,0,6,-6,-126,-113
1329,46,-80,-126,17,86,-104,13,0,13,0,-133,-120
1330,53,-70,-124,9,88,-97,13,6,13,-6,-126,-120
1331,53,-66,-120,6,86,-93,0,0,13,0,-120,-120
1332,53,-66,-120,6,86,-93,13,-13,20,-6,-120,-126
1333,53,-73,-126,10,89,-100,13,-13,26,-13,-120,-133
1334,44,-77,-121,17,82,-100,6,-6,26,-13,-113,-126
1335,40,-60,-100,10,69,-80,26,0,26,0,-106,-120
1336,56,-69,-125,6,90,-97,26,6,20,-20,-126,-113
1337,60,-66,-126,4,93,-97,26,0,13,-26,-120,-120
1338,64,-66,-130,1,97,-98,20,-6,13,-26,-133,-126
1339,60,-60,-120,0,89,-90,13,0,13,-26,-120,-133
1340,62,-57,-120,-2,90,-89,13,0,13,-33,-120,-126
1341,60,-60,-120,0,89,-90,13,-13,13,-40,-133,-133
1342,53,-53,-106,0,80,-80,13,0,13,-26,-120,-126
1343,46,-53,-100,4,73,-77,13,0,13,-40,-120,-120
1344,26,-82,-109,28,68,-96,20,13,6,-40,-113,-113
1345,6,-113,-120,53,62,-117,26,13,0,-40,-120,-120
1346,0,-113,-113,57,56,-113,20,13,-20,-33,-126,-126
1347,-6,-120,-113,64,53,-117,13,26,-13,-26,-133,-133
1348,0,-106,-106,53,53,-106,20,20,-6,-40,-120,-120
1349,0,-100,-100,50,49,-100,26,13,0,-53,-120,-120
1350,-4,-109,-105,57,50,-108,20,13,0,-40,-126,-126
1351,-6,-126,-120,66,56,-124,13,13,0,-40,-133,-133
1352,-9,-113,-104,61,46,-109,13,6,0,-53,-126,-126
1353,-13,-113,-100,64,42,-106,13,0,0,-53,-120,-120
1354,-6,-122,-116,65,54,-120,20,6,0,-53,-120,-120
1355,-6,-126,-120,66,56,-124,26,13,-13,-53,-120,-120
1356,-4,-110,-106,57,50,-109,26,6,0,-53,-120,-120
1357,0,-106,-106,53,53,-106,26,13,0,-53,-120,-120
1358,-4,-104,-100,54,48,-102,26,13,0,-60,-113,-126
1359,6,-86,-93,40,49,-90,26,26,0,-53,-106,-133
1360,20,-73,-93,26,56,-84,26,20,0,-53,-106,-126
1361,26,-73,-100,24,62,-86,26,13,0,-40,-106,-120
1362,29,-77,-106,24,68,-92,26,13,6,-40,-106,-120
1363,33,-66,-100,17,66,-84,26,13,13,-40,-106,-120
1364,33,-73,-106,20,69,-90,20,26,6,-33,-106,-113
1365,40,-60,-100,10,69,-80,40,40,0,-26,-106,-106
1366,46,-53,-100,4,73,-77,40,40,0,-26,-106,-100
1367,53,-46,-100,-2,76,-73,40,40,0,-13,-93,-93
1368,53,-46,-100,-2,76,-73,33,40,0,-26,-100,-100
1369,53,-53,-106,0,80,-80,26,40,0,-13,-106,-106
1370,56,-56,-112,0,84,-84,20,40,0,-13,-106,-113
1371,60,-53,-113,-2,86,-84,13,40,0,-13,-106,-106
1372,40,-60,-100,10,69,-80,20,40,-6,-20,-113,-100
1373,20,-73,-93,26,56,-84,26,40,-13,-26,-120,-93
1374,26,-86,-113,30,69,-100,26,40,-6,-26,-120,-106
1375,26,-86,-113,30,69,-100,26,40,0,-26,-120,-106
1376,24,-86,-110,32,66,-98,26,40,6,-26,-120,-93
1377,20,-80,-100,30,60,-90,26,40,13,-26,-120,-93
1378,13,-89,-102,38,57,-96,33,46,6,-26,-120,-100
1379,0,-93,-93,46,46,-93,40,53,0,-26,-120,-106
1380,-9,-96,-86,53,38,-92,33,46,20,-20,-106,-106
1381,-6,-100,-93,53,42,-97,26,40,13,-26,-106,-106
1382,0,-93,-93,46,46,-93,26,33,13,-20,-106,-106
1383,0,-86,-86,44,42,-86,26,40,26,-13,-106,-93
1384,9,-90,-100,41,54,-96,26,33,33,-13,-106,-113
1385,13,-80,-93,33,53,-86,26,53,26,-13,-106,-106
1386,29,-66,-96,18,62,-81,26,46,40,-20,-86,-100
1387,33,-53,-86,10,60,-70,26,53,26,-26,-93,-93
1388,33,-56,-89,12,61,-73,33,46,26,-26,-73,-93
1389,26,-60,-86,17,56,-73,26,40,26,-26,-80,-93
1390,24,-66,-90,21,57,-78,33,53,13,-33,-93,-93
1391,6,-66,-73,30,40,-70,26,53,13,-26,-93,-93
1392,13,-66,-80,26,46,-73,26,40,0,-46,-86,-100
1393,20,-73,-93,26,56,-84,26,40,13,-40,-80,-106
1394,6,-66,-73,30,40,-70,26,40,20,-33,-93,-106
1395,6,-53,-60,24,33,-57,26,40,26,-26,-93,-106
1396,13,-53,-66,20,40,-60,20,40,26,-26,-100,-93
1397,13,-53,-66,20,40,-60,13,40,26,-26,-106,-93
1398,6,-49,-56,21,30,-53,20,33,20,-33,-113,-93
1399,6,-53,-60,24,33,-57,26,26,13,-26,-106,-93
1400,13,-50,-64,18,38,-57,26,33,20,-26,-106,-86
1401,20,-46,-66,13,42,-57,26,40,26,-26,-93,-80
1402,17,-40,-57,12,37,-49,26,40,26,-26,-100,-86
1403,13,-46,-60,17,36,-53,26,40,26,-26,-106,-93
1404,6,-49,-56,21,30,-53,26,40,20,-26,-106,-86
1405,0,-53,-53,26,26,-53,26,53,26,-26,-106,-80
1406,0,-62,-62,32,30,-62,33,40,6,-20,-106,-86
1407,0,-60,-60,30,29,-60,40,53,13,-13,-106,-93
1408,0,-62,-62,32,30,-62,33,53,20,-13,-106,-93
1409,13,-66,-80,26,46,-73,26,40,13,-13,-93,-93
1410,13,-62,-76,25,44,-69,33,33,20,-6,-93,-80
1411,13,-66,-80,26,46,-73,40,26,13,0,-93,-80
1412,22,-57,-80,17,50,-69,46,26,13,-6,-93,-86
1413,20,-60,-80,20,49,-70,53,26,13,-13,-93,-93
1414,17,-53,-70,18,44,-62,53,33,26,-6,-86,-86
1415,13,-46,-60,17,36,-53,40,26,26,0,-80,-80
1416,22,-49,-72,13,46,-61,26,33,20,-6,-86,-80
1417,40,-46,-86,4,62,-66,26,40,26,-13,-93,-80
1418,33,-46,-80,6,56,-64,33,26,33,-20,-93,-86
1419,26,-53,-80,13,53,-66,40,26,40,-13,-93,-93
1420,22,-46,-69,12,45,-58,33,33,46,0,-86,-93
1421,26,-40,-66,6,46,-53,26,40,53,0,-80,-93
1422,26,-30,-57,2,41,-44,40,40,53,13,-73,-86
1423,33,-13,-46,-9,40,-30,40,40,53,13,-66,-80
1424,46,-13,-60,-16,53,-37,26,40,46,6,-73,-80
1425,40,-13,-53,-13,46,-33,26,40,40,0,-80,-80
1426,37,-10,-48,-13,42,-29,26,40,40,-6,-80,-80
1427,40,-6,-46,-16,42,-26,26,40,40,-13,-80,-80
1428,40,2,-37,-21,38,-17,26,40,33,-6,-66,-73
1429,40,13,-26,-26,33,-6,26,40,26,0,-53,-66
1430,46,22,-24,-34,34,-1,26,40,26,6,-53,-66
1431,53,33,-20,-42,36,6,26,53,26,13,-53,-66
1432,53,30,-22,-41,37,4,33,40,20,13,-46,-73
1433,53,26,-26,-40,40,0,40,40,13,13,-53,-80
1434,44,30,-13,-37,28,8,40,60,20,20,-53,-80
1435,33,13,-20,-22,26,-4,40,53,26,13,-66,-80
1436,26,4,-22,-14,24,-9,40,53,26,6,-60,-80
1437,26,-6,-33,-9,29,-20,26,53,26,13,-53,-80
1438,13,-16,-29,1,21,-22,40,46,33,0,-53,-86
1439,6,-20,-26,6,16,-24,40,40,26,0,-53,-93
1440,4,-36,-40,16,21,-38,33,33,33,0,-53,-93
1441,0,-40,-40,20,20,-40,26,26,26,0,-53,-93
1442,9,-24,-33,8,21,-29,33,26,20,0,-46,-86
1443,6,-20,-26,6,16,-24,40,26,13,0,-40,-80
1444,13,-13,-26,0,20,-20,20,26,13,0,-40,-80
1445,33,-6,-40,-13,36,-24,13,26,13,0,-40,-80
1446,30,0,-30,-14,30,-16,26,33,13,0,-33,-80
1447,33,-6,-40,-13,36,-24,26,40,13,0,-26,-80
1448,40,-4,-44,-17,41,-24,20,40,13,0,-40,-86
1449,40,0,-40,-20,40,-20,13,40,13,0,-53,-93
1450,37,-13,-50,-12,44,-32,20,40,20,6,-60,-86
1451,26,-20,-46,-2,36,-33,26,40,26,13,-66,-80
1452,24,-22,-46,0,34,-34,33,33,20,6,-60,-93
1453,6,-26,-33,10,20,-30,40,26,13,0,-53,-80
1454,6,-29,-36,12,21,-33,40,26,13,6,-53,-80
1455,6,-33,-40,13,22,-37,40,26,13,13,-53,-80
1456,6,-30,-37,12,21,-34,40,20,20,13,-46,-80
1457,13,-20,-33,4,22,-26,40,13,26,13,-40,-80
1458,13,-6,-20,-2,16,-13,40,13,26,26,-33,-73
1459,20,-13,-33,-2,26,-24,40,13,26,26,-40,-80
1460,6,-22,-29,8,17,-26,40,13,20,20,-33,-86
1461,6,-20,-26,6,16,-24,40,13,13,26,-40,-80
1462,13,-17,-30,2,21,-24,40,20,20,13,-40,-86
1463,6,-20,-26,6,16,-24,40,26,26,26,-40,-80
1464,4,-20,-24,8,13,-22,40,33,20,6,-53,-80
1465,13,-13,-26,0,20,-20,40,40,13,0,-53,-80
1466,16,-26,-42,5,29,-34,40,40,6,0,-53,-73
1467,20,-33,-53,6,36,-44,40,40,0,0,-53,-66
1468,13,-30,-44,9,28,-37,40,40,6,0,-53,-66
1469,6,-33,-40,13,22,-37,40,26,13,0,-53,-66
1470,17,-30,-48,6,32,-40,40,46,0,0,-53,-66
1471,13,-33,-46,10,29,-40,26,40,0,0,-53,-66
1472,26,-21,-48,-2,37,-34,33,33,6,-6,-46,-66
1473,33,-20,-53,-6,42,-37,40,40,13,-13,-40,-66
1474,36,-16,-52,-9,44,-34,33,40,13,-13,-40,-53
1475,46,-20,-66,-13,56,-44,40,40,13,-13,-40,-66
1476,53,-13,-66,-20,60,-40,53,40,20,-20,-40,-66
1477,53,-13,-66,-20,60,-40,53,40,26,-26,-40,-66
1478,53,-16,-69,-18,61,-42,53,40,26,-20,-46,-66
1479,60,-13,-73,-22,66,-44,66,40,26,-13,-53,-66
1480,60,-10,-70,-24,65,-41,46,46,26,-13,-46,-66
1481,53,-13,-66,-20,60,-40,53,53,26,-13,-40,-66
1482,46,-22,-69,-12,57,-46,46,40,20,-13,-60,-73
1483,46,-26,-73,-9,60,-50,40,26,13,-13,-53,-80
1484,46,-33,-80,-6,62,-57,33,33,13,-13,-53,-80
1485,46,-40,-86,-2,66,-64,40,40,13,-26,-53,-80
1486,37,-36,-73,0,54,-54,53,40,6,-13,-66,-80
1487,33,-46,-80,6,56,-64,53,40,0,-13,-66,-80
1488,33,-49,-82,8,57,-66,53,46,0,-13,-73,-80
1489,33,-53,-86,10,60,-70,53,53,0,-13,-66,-80
1490,10,-62,-73,26,41,-68,53,46,0,-13,-80,-86
1491,6,-73,-80,33,42,-77,53,40,0,-13,-66,-93
1492,2,-80,-82,38,42,-81,53,40,0,-6,-80,-93
1493,6,-80,-86,37,46,-84,53,40,0,0,-66,-93
1494,4,-82,-86,40,45,-85,40,40,0,-13,-66,-93
1495,6,-80,-86,37,46,-84,40,40,0,0,-66,-93
1496,6,-80,-86,37,46,-84,33,40,0,-20,-80,-100
1497,6,-66,-73,30,40,-70,40,40,0,-13,-66,-106
1498,10,-66,-77,28,44,-72,53,46,6,-6,-60,-100
1499,13,-60,-73,24,42,-66,53,53,13,0,-53,-93
1500,26,-44,-70,9,48,-57,46,53,13,-6,-66,-93
1501,40,-33,-73,-2,56,-53,53,53,13,-13,-53,-93
1502,42,-20,-62,-10,52,-41,60,53,20,-13,-46,-93
1503,53,-13,-66,-20,60,-40,53,53,26,-13,-40,-93
1504,44,-17,-61,-13,52,-40,40,46,33,-6,-60,-86
1505,26,-20,-46,-2,36,-33,26,40,40,0,-66,-80
1506,29,-4,-33,-12,30,-18,40,40,40,0,-66,-86
1507,26,-13,-40,-6,33,-26,40,40,40,0,-66,-93
1508,20,-6,-26,-6,22,-17,46,60,33,0,-60,-80
1509,26,-13,-40,-6,33,-26,53,53,26,0,-66,-93
1510,26,-2,-29,-12,28,-16,53,53,33,0,-66,-86
1511,20,0,-20,-9,20,-10,53,53,26,0,-66,-93
1512,26,9,-17,-17,21,-4,53,46,26,20,-53,-73
1513,26,13,-13,-20,20,0,53,53,40,26,-53,-66
1514,29,20,-9,-24,18,5,46,46,40,20,-46,-66
1515,33,20,-13,-26,22,2,53,53,40,26,-40,-66
1516,36,29,-6,-32,21,10,53,53,60,26,-33,-46
1517,33,33,0,-33,16,16,66,66,66,40,-26,-40
1518,36,26,-9,-30,22,8,66,80,66,40,-33,-40
1519,40,33,-6,-36,22,13,80,80,80,53,-26,-40
1520,26,37,10,-32,8,24,93,100,86,73,-20,-33
1521,20,33,13,-26,2,22,93,106,80,80,-13,-26
1522,13,44,30,-28,-9,37,100,120,93,80,-20,-26
1523,13,40,26,-26,-6,33,106,120,93,80,-26,-26
1524,-6,33,40,-13,-24,36,106,120,93,80,-26,-33
1525,-13,26,40,-6,-26,33,120,120,93,80,-26,-26
1526,-6,33,40,-13,-24,36,120,120,93,93,-26,-13
1527,-6,26,33,-9,-20,29,120,120,93,93,-26,-13
1528,-9,36,45,-13,-28,40,106,120,100,86,-20,-13
1529,-6,40,46,-16,-26,42,106,120,106,106,-13,-13
1530,-6,26,33,-9,-20,29,106,120,93,100,-13,-20
1531,6,33,26,-20,-10,29,106,120,93,106,-13,-26
1532,10,26,16,-18,-2,21,113,126,86,100,-20,-26
1533,0,20,20,-9,-10,20,106,120,80,93,-26,-26
1534,0,0,0,0,0,0,106,126,86,93,-26,-26
1535,6,6,0,-6,2,2,106,133,93,93,-26,-26
1536,10,6,-4,-8,6,1,93,126,86,100,-26,-20
1537,13,6,-6,-9,9,0,93,106,93,93,-26,-13
1538,20,6,-13,-13,16,-4,73,106,93,106,-26,-13
1539,13,6,-6,-9,9,0,66,106,93,106,-26,-13
1540,13,4,-9,-8,10,-2,73,93,80,93,-26,-13
1541,13,6,-6,-9,9,0,66,93,80,93,-40,-13
1542,16,4,-12,-9,13,-4,60,86,66,80,-33,-20
1543,26,6,-20,-16,22,-6,53,80,66,80,-26,-13
1544,29,26,-2,-28,16,12,33,60,66,80,-26,-13
1545,33,33,0,-33,16,16,40,66,66,80,-13,-13
1546,49,40,-9,-44,29,14,26,53,66,80,-26,0
1547,66,46,-20,-56,42,13,26,53,53,80,-26,-13
1548,69,60,-9,-64,38,25,20,46,53,80,-20,-6
1549,73,60,-13,-66,42,22,13,26,53,66,-13,0
1550,86,62,-24,-74,54,18,0,20,40,66,-26,-13
1551,86,53,-33,-69,60,9,0,0,40,53,-26,-13
1552,100,56,-44,-77,72,5,-6,13,40,60,-33,-13
1553,100,53,-46,-76,73,2,0,13,53,66,-26,-13
1554,93,49,-44,-70,68,2,6,20,40,53,-20,-6
1555,80,53,-26,-66,53,13,0,13,40,53,-26,-13
1556,82,46,-36,-64,58,5,-6,6,33,46,-20,-6
1557,80,53,-26,-66,53,13,-13,0,40,53,-26,-13
1558,93,46,-46,-69,69,0,-6,-6,26,46,-46,-33
1559,100,46,-53,-73,76,-4,0,0,26,40,-53,-40
1560,117,26,-90,-72,104,-32,6,0,20,40,-53,-40
1561,113,13,-100,-62,106,-44,13,0,0,26,-66,-53
1562,104,-6,-110,-48,106,-58,-6,0,0,20,-66,-60
1563,93,-20,-113,-36,102,-66,0,0,0,13,-80,-80
1564,73,-26,-100,-22,86,-64,-6,-13,-6,6,-80,-80
1565,53,-46,-100,-2,76,-73,0,-13,-13,0,-80,-80
1566,50,-60,-110,5,80,-85,6,-6,-13,-6,-86,-80
1567,46,-66,-113,10,80,-90,0,0,-13,-13,-93,-80
1568,40,-66,-106,13,73,-86,6,0,-13,-13,-93,-80
1569,33,-66,-100,17,66,-84,0,0,-13,-13,-93,-80
1570,46,-64,-110,9,78,-88,-6,6,-20,-6,-93,-80
1571,53,-60,-113,4,82,-86,-13,0,-26,0,-93,-80
1572,46,-57,-104,5,74,-81,-6,-6,-26,0,-93,-73
1573,60,-60,-120,0,89,-90,-13,-13,-13,0,-106,-80
1574,46,-69,-116,12,81,-93,-13,-6,-20,-6,-106,-86
1575,40,-80,-120,20,80,-100,-13,0,-13,0,-106,-93
1576,30,-102,-133,36,81,-118,-6,-6,-20,-13,-126,-93
1577,20,-120,-140,50,80,-130,-13,-13,-26,-26,-120,-93
1578,20,-126,-146,53,82,-137,-26,-6,-26,-26,-126,-106
1579,13,-133,-146,60,80,-140,-26,0,-26,-26,-133,-120
1580,6,-140,-146,66,76,-144,-13,0,-26,-26,-126,-113
1581,6,-140,-146,66,76,-144,-13,0,-26,-26,-120,-106
1582,20,-120,-140,50,80,-130,-20,-13,-26,-33,-126,-113
1583,26,-100,-126,37,76,-113,-13,0,-26,-40,-120,-120
1584,36,-77,-113,21,74,-96,-6,-6,-26,-33,-106,-113
1585,46,-53,-100,4,73,-77,0,-13,-26,-26,-93,-106
1586,42,-62,-105,10,73,-84,0,-6,-33,0,-113,-93
1587,46,-60,-106,6,76,-84,0,0,-40,0,-106,-106
1588,40,-69,-109,14,74,-89,-13,0,-40,0,-113,-93
1589,40,-80,-120,20,80,-100,-13,-13,-40,0,-120,-93
1590,49,-66,-116,9,82,-92,-6,0,-33,0,-113,-86
1591,46,-73,-120,13,82,-97,-13,0,-26,13,-106,-80
1592,40,-73,-113,17,76,-93,-6,0,-33,0,-113,-100
1593,40,-73,-113,17,76,-93,0,0,-40,0,-120,-93
1594,30,-82,-113,26,72,-98,-6,0,-40,6,-120,-93
1595,33,-80,-113,24,73,-97,-13,0,-40,0,-120,-93
1596,37,-82,-120,22,78,-101,-6,0,-46,-6,-113,-100
1597,33,-93,-126,30,80,-110,0,0,-40,-13,-106,-106
1598,40,-86,-126,24,82,-106,-6,0,-40,-13,-106,-113
1599,46,-86,-133,20,89,-110,-13,0,-40,-13,-106,-120
1600,33,-106,-140,37,86,-124,-13,0,-53,-6,-106,-106
1601,33,-106,-140,37,86,-124,-13,0,-53,-13,-106,-106
1602,26,-110,-137,42,81,-124,-13,0,-53,-20,-106,-113
1603,20,-113,-133,46,76,-124,-13,0,-53,-26,-106,-120
1604,20,-120,-140,50,80,-130,-13,0,-66,-26,-120,-133
1605,13,-120,-133,53,73,-126,-13,0,-53,-40,-120,-133
1606,20,-120,-140,50,80,-130,-13,-6,-53,-26,-120,-133
1607,13,-120,-133,53,73,-126,0,-13,-53,-26,-120,-133
1608,29,-110,-140,41,84,-125,-20,-6,-46,-20,-113,-126
1609,40,-100,-140,30,89,-120,-13,0,-40,-13,-106,-120
1610,36,-97,-133,30,84,-116,-6,0,-40,-13,-126,-120
1611,40,-93,-133,26,86,-113,-13,0,-53,-26,-133,-133
1612,36,-100,-136,32,85,-118,-6,-6,-40,-40,-140,-140
1613,33,-106,-140,37,86,-124,-13,-13,-40,-40,-146,-133
1614,26,-116,-142,45,84,-129,-6,-6,-40,-53,-153,-140
1615,26,-120,-146,46,86,-133,0,0,-40,-53,-160,-133
1616,26,-117,-144,45,85,-130,6,6,-46,-60,-160,-120
1617,26,-120,-146,46,86,-133,13,13,-53,-66,-160,-133
1618,20,-113,-133,46,76,-124,6,13,-46,-60,-160,-133
1619,20,-113,-133,46,76,-124,0,26,-40,-53,-160,-133
1620,17,-116,-133,49,74,-125,0,13,-40,-60,-160,-140
1621,6,-120,-126,57,66,-124,0,13,-40,-66,-160,-146
1622,-2,-126,-124,65,60,-125,6,20,-53,-66,-166,-146
1623,0,-120,-120,60,60,-120,13,26,-53,-66,-173,-146
1624,0,-129,-129,65,64,-129,6,26,-46,-66,-166,-146
1625,0,-126,-126,64,62,-126,0,26,-40,-66,-160,-146
1626,-2,-136,-133,69,65,-134,0,20,-40,-60,-160,-146
1627,0,-140,-140,70,69,-140,0,13,-40,-53,-160,-146
1628,-4,-133,-129,69,62,-132,0,13,-40,-53,-160,-146
1629,-6,-140,-133,73,62,-137,0,13,-40,-53,-160,-146
1630,-6,-140,-133,73,62,-137,6,6,-40,-60,-160,-140
1631,-6,-140,-133,73,62,-137,13,0,-40,-66,-160,-133
1632,0,-137,-137,69,68,-137,20,6,-40,-66,-160,-133
1633,13,-133,-146,60,80,-140,26,13,-40,-66,-160,-133
1634,4,-142,-146,69,74,-145,26,13,-40,-66,-160,-140
1635,0,-146,-146,73,73,-146,26,13,-40,-66,-160,-146
1636,0,-144,-144,72,72,-144,26,13,-40,-66,-160,-146
1637,0,-146,-146,73,73,-146,26,13,-26,-66,-173,-146
1638,0,-149,-149,74,74,-149,26,13,-40,-66,-160,-140
1639,0,-153,-153,77,76,-153,26,13,-40,-66,-160,-146
1640,-4,-160,-156,82,76,-158,26,6,-40,-73,-160,-146
1641,0,-153,-153,77,76,-153,26,0,-40,-80,-160,-146
1642,0,-146,-146,73,73,-146,26,0,-33,-73,-166,-140
1643,0,-140,-140,70,69,-140,26,0,-26,-80,-160,-133
1644,0,-140,-140,70,69,-140,26,6,-26,-73,-160,-133
1645,0,-140,-140,70,69,-140,26,13,-26,-66,-160,-133
1646,-6,-144,-137,76,65,-141,33,13,-20,-66,-166,-133
1647,0,-146,-146,73,73,-146,26,13,-26,-66,-173,-133
1648,-6,-146,-140,77,66,-144,33,6,-20,-73,-173,-146
1649,-6,-140,-133,73,62,-137,26,0,-26,-80,-173,-146
1650,-6,-140,-133,73,62,-137,33,6,-26,-73,-173,-140
1651,-6,-146,-140,77,66,-144,40,13,-26,-66,-173,-133
1652,-13,-137,-124,76,54,-130,33,13,-26,-66,-166,-133
1653,-6,-133,-126,70,60,-130,26,13,-26,-66,-160,-133
1654,0,-124,-124,62,61,-124,20,6,-33,-73,-160,-133
1655,6,-126,-133,60,69,-130,13,0,-40,-80,-160,-133
1656,-2,-129,-126,66,61,-128,20,6,-33,-73,-166,-140
1657,-13,-140,-126,77,56,-133,26,13,-26,-66,-173,-146
1658,-10,-133,-122,72,56,-128,26,13,-26,-66,-173,-146
1659,0,-133,-133,66,66,-133,26,13,-26,-66,-173,-146
1660,9,-124,-133,57,70,-129,40,20,-20,-66,-166,-146
1661,26,-113,-140,44,82,-126,26,26,-13,-66,-160,-146
1662,22,-117,-140,48,81,-129,40,20,-13,-66,-160,-140
1663,33,-106,-140,37,86,-124,40,26,-13,-66,-160,-133
1664,26,-116,-142,45,84,-129,40,33,-13,-66,-153,-133
1665,26,-113,-140,44,82,-126,40,26,-13,-66,-146,-146
1666,33,-106,-140,37,86,-124,40,26,-13,-66,-146,-126
1667,40,-100,-140,30,89,-120,40,26,-13,-66,-146,-133
1668,42,-104,-146,30,94,-125,20,26,-20,-66,-146,-133
1669,53,-93,-146,20,100,-120,13,26,-26,-66,-146,-133
1670,56,-86,-142,16,98,-114,26,20,-20,-66,-146,-133
1671,60,-80,-140,10,100,-110,26,26,-13,-66,-146,-133
1672,46,-86,-133,20,89,-110,26,33,-13,-66,-146,-133
1673,46,-86,-133,20,89,-110,26,26,-13,-66,-146,-133
1674,30,-96,-126,33,78,-112,20,26,-20,-66,-140,-133
1675,13,-100,-113,44,62,-106,26,26,-26,-66,-133,-133
1676,6,-113,-120,53,62,-117,20,20,-33,-80,-146,-126
1677,0,-120,-120,60,60,-120,26,26,-26,-80,-146,-133
1678,0,-122,-122,61,61,-122,20,20,-46,-80,-146,-133
1679,-6,-126,-120,66,56,-124,13,13,-40,-80,-160,-146
1680,-6,-126,-120,66,56,-124,13,20,-40,-80,-160,-146
1681,-13,-126,-113,70,49,-120,0,13,-40,-80,-160,-146
1682,-13,-149,-136,81,61,-142,13,26,-40,-66,-160,-146
1683,-26,-160,-133,93,53,-146,13,26,-26,-80,-160,-146
1684,-33,-173,-140,104,53,-157,13,33,-33,-80,-166,-153
1685,-40,-180,-140,110,49,-160,26,26,-26,-80,-146,-173
1686,-40,-189,-149,114,54,-169,46,40,-26,-73,-153,-180
1687,-46,-193,-146,120,49,-170,53,53,-13,-66,-160,-186
1688,-53,-193,-140,124,42,-166,46,53,-6,-60,-153,-193
1689,-60,-200,-140,130,40,-170,53,66,-13,-66,-160,-200
1690,-64,-202,-138,133,37,-170,60,73,6,-60,-153,-193
1691,-60,-206,-146,133,42,-177,66,80,13,-53,-160,-200
1692,-66,-193,-126,130,29,-160,73,80,13,-33,-153,-193
1693,-66,-173,-106,120,20,-140,66,80,26,-13,-146,-200
1694,-66,-149,-82,108,8,-116,66,66,26,-6,-126,-173
1695,-60,-113,-53,86,-4,-84,53,66,26,0,-93,-146
1696,-44,-53,-9,49,-17,-32,60,73,46,26,-53,-113
1697,-26,0,26,13,-26,13,53,66,40,40,0,-66
1698,-20,53,73,-16,-46,62,46,53,60,73,40,-13
1699,0,113,113,-56,-57,113,40,53,66,93,93,26
1700,13,157,144,-85,-65,150,40,66,80,120,133,60
1701,26,206,180,-116,-77,193,40,80,93,160,186,106
1702,56,269,213,-162,-78,241,40,93,113,193,240,166
1703,86,346,260,-216,-86,302,40,106,133,240,306,226
1704,86,397,310,-241,-112,353,40,113,140,253,346,273
1705,100,446,346,-273,-124,396,40,133,160,293,400,333
1706,120,497,377,-308,-129,437,46,140,180,313,453,380
1707,146,560,413,-353,-133,486,53,146,200,360,506,426
1708,173,653,480,-413,-153,566,46,160,213,406,580,493
1709,193,726,533,-460,-170,629,40,173,240,453,640,560
1710,210,797,586,-504,-188,692,40,186,266,493,713,620
1711,226,886,660,-556,-217,773,40,200,293,546,786,680
1712,246,966,720,-606,-237,842,40,226,320,606,853,766
1713,273,1060,786,-666,-257,922,40,240,346,653,920,840
1714,302,1144,841,-722,-269,992,40,233,386,700,993,920
1715,320,1226,906,-773,-293,1066,40,240,413,746,1053,986
1716,326,1373,1046,-849,-360,1209,6,213,446,826,1153,1093
1717,340,1453,1113,-896,-386,1282,0,213,466,866,1200,1160
1718,340,1522,1182,-930,-421,1352,-20,200,486,906,1273,1206
1719,340,1526,1186,-933,-424,1356,-13,186,493,906,1253,1213
1720,333,1433,1100,-882,-384,1266,-6,193,480,833,1153,1166
1721,320,1320,1000,-820,-340,1160,13,186,453,760,1026,1106
1722,266,1066,800,-666,-266,933,40,200,380,606,786,960
1723,226,853,626,-540,-200,740,66,213,320,480,586,826
1724,190,630,440,-410,-125,534,93,220,266,340,380,673
1725,153,440,286,-296,-66,362,106,200,226,240,213,546
1726,124,313,189,-218,-33,250,120,186,166,126,93,466
1727,93,186,93,-140,0,140,120,146,106,26,-26,386
1728,113,66,-46,-89,80,9,73,86,33,-53,-126,293
1729,106,-26,-133,-40,120,-80,53,26,-26,-133,-213,226
1730,82,-82,-165,0,124,-124,13,-26,-80,-193,-260,193
1731,66,-126,-193,30,129,-160,0,-80,-120,-226,-293,173
1732,46,-142,-189,48,117,-166,-20,-120,-146,-260,-300,146
1733,20,-173,-193,77,106,-184,-26,-146,-173,-280,-320,120
1734,4,-173,-177,85,90,-176,-40,-153,-180,-300,-326,100
1735,-13,-180,-166,97,76,-173,-26,-160,-186,-293,-320,80
1736,-13,-193,-180,104,82,-186,-33,-166,-180,-286,-320,60
1737,-13,-206,-193,110,89,-200,-26,-186,-186,-293,-333,26
1738,-40,-209,-169,125,64,-189,-26,-193,-180,-293,-333,-13
1739,-33,-206,-173,120,69,-190,-40,-213,-173,-293,-333,-26
1740,-29,-180,-150,105,60,-165,-66,-233,-193,-293,-320,-33
1741,-26,-173,-146,100,60,-160,-80,-240,-186,-280,-306,-40
1742,-29,-146,-117,88,44,-132,-86,-260,-186,-266,-286,-53
1743,-26,-126,-100,77,36,-113,-106,-266,-186,-240,-266,-53
1744,-17,-133,-116,76,49,-125,-126,-286,-193,-240,-273,-73
1745,-13,-126,-113,70,49,-120,-146,-293,-200,-240,-253,-80
1746,13,-117,-130,52,72,-124,-153,-286,-180,-226,-266,-80
1747,33,-120,-153,44,93,-137,-160,-293,-186,-240,-266,-93
1748,46,-129,-176,41,110,-153,-166,-280,-193,-233,-260,-106
1749,66,-126,-193,30,129,-160,-173,-266,-200,-226,-253,-106
1750,62,-122,-185,30,124,-154,-153,-246,-193,-213,-253,-120
1751,66,-126,-193,30,129,-160,-146,-213,-173,-213,-253,-120
1752,64,-124,-188,30,125,-156,-126,-193,-160,-193,-233,-126
1753,60,-126,-186,33,122,-157,-106,-160,-146,-173,-226,-120
1754,73,-130,-204,29,138,-168,-80,-126,-133,-173,-226,-120
1755,80,-120,-200,20,140,-160,-80,-106,-120,-160,-213,-120
1756,80,-133,-213,26,146,-173,-60,-100,-126,-166,-213,-120
1757,73,-133,-206,30,140,-170,-40,-80,-120,-160,-200,-120
1758,64,-142,-206,40,134,-174,-33,-60,-120,-166,-200,-120
1759,60,-140,-200,40,129,-170,-26,-53,-106,-173,-200,-120
1760,57,-146,-204,45,130,-176,-13,-40,-106,-160,-186,-133
1761,60,-146,-206,44,133,-177,-13,-40,-106,-146,-186,-133
1762,60,-136,-196,38,128,-166,-20,-40,-80,-146,-173,-126
1763,53,-133,-186,40,120,-160,-26,-40,-80,-133,-173,-120
1764,44,-142,-186,49,114,-165,-13,-33,-66,-113,-153,-106
1765,33,-133,-166,50,100,-150,-13,-40,-66,-106,-146,-106
1766,26,-124,-150,49,88,-137,-6,-40,-60,-100,-140,-106
1767,13,-126,-140,57,76,-133,0,-40,-53,-93,-133,-93
1768,20,-124,-144,52,81,-134,-20,-33,-53,-93,-126,-86
1769,13,-120,-133,53,73,-126,-13,-40,-53,-93,-106,-93
1770,13,-110,-124,49,68,-117,-13,-26,-53,-80,-120,-93
1771,13,-113,-126,50,69,-120,-26,-26,-53,-93,-106,-93
1772,4,-120,-124,58,64,-122,-13,-26,-73,-86,-113,-93
1773,-6,-133,-126,70,60,-130,-13,-26,-66,-80,-106,-106
1774,-9,-133,-124,72,57,-129,-13,-26,-66,-80,-106,-93
1775,-6,-140,-133,73,62,-137,-13,-26,-66,-80,-106,-106
1776,-4,-149,-145,77,70,-148,0,-13,-66,-80,-120,-113
1777,-6,-160,-153,84,73,-157,0,-13,-66,-66,-120,-120
1778,-20,-156,-136,88,57,-146,-6,-6,-60,-73,-120,-120
1779,-20,-160,-140,90,60,-150,13,0,-53,-66,-120,-120
1780,-20,-160,-140,90,60,-150,20,6,-53,-73,-113,-120
1781,-13,-160,-146,86,66,-153,26,13,-53,-66,-106,-120
1782,0,-153,-153,77,76,-153,20,13,-53,-66,-113,-106
1783,0,-146,-146,73,73,-146,13,0,-53,-66,-120,-120
1784,6,-144,-150,69,78,-148,26,13,-40,-60,-113,-120
1785,6,-140,-146,66,76,-144,26,13,-53,-53,-106,-120
1786,9,-130,-140,61,74,-136,33,6,-33,-53,-106,-113
1787,13,-126,-140,57,76,-133,40,13,-40,-53,-106,-120
1788,-2,-133,-130,68,64,-132,33,13,-40,-53,-106,-113
1789,-6,-133,-126,70,60,-130,26,13,-40,-53,-106,-106
1790,6,-120,-126,57,66,-124,20,6,-40,-53,-106,-113
1791,0,-120,-120,60,60,-120,13,13,-40,-53,-106,-120
1792,0,-126,-126,64,62,-126,26,13,-46,-53,-100,-113
1793,0,-126,-126,64,62,-126,26,13,-53,-53,-106,-106
1794,6,-120,-126,57,66,-124,26,6,-53,-53,-100,-113
1795,13,-113,-126,50,69,-120,26,0,-53,-53,-106,-106
1796,22,-113,-136,45,78,-125,33,0,-53,-53,-100,-106
1797,33,-100,-133,33,82,-117,40,0,-40,-53,-106,-106
1798,33,-93,-126,30,80,-110,33,-6,-40,-60,-106,-106
1799,46,-93,-140,24,93,-117,26,-13,-40,-66,-106,-106
1800,40,-93,-133,26,86,-113,26,-13,-33,-66,-106,-100
1801,40,-93,-133,26,86,-113,26,-13,-26,-66,-106,-106
1802,26,-109,-136,41,81,-122,26,-13,-46,-73,-126,-126
1803,20,-113,-133,46,76,-124,26,-13,-40,-80,-120,-120
1804,10,-113,-124,52,66,-118,6,-6,-33,-73,-120,-113
1805,0,-120,-120,60,60,-120,0,-13,-26,-66,-120,-106
1806,9,-117,-126,54,68,-122,20,-6,-26,-66,-120,-106
1807,20,-113,-133,46,76,-124,13,-13,-26,-66,-120,-106
1808,26,-104,-130,38,78,-117,13,-13,-26,-53,-120,-100
1809,26,-106,-133,40,80,-120,26,-13,-26,-53,-120,-93
1810,17,-106,-124,45,70,-116,20,-13,-26,-60,-120,-100
1811,13,-113,-126,50,69,-120,13,-13,-26,-66,-120,-106
1812,20,-106,-126,44,73,-117,20,-6,-26,-66,-113,-106
1813,20,-106,-126,44,73,-117,26,0,-26,-66,-106,-106
1814,20,-106,-126,44,73,-117,26,0,-26,-60,-106,-100
1815,26,-100,-126,37,76,-113,26,0,-26,-53,-106,-93
1816,17,-109,-126,46,72,-118,26,0,-20,-60,-106,-93
1817,20,-106,-126,44,73,-117,26,0,-13,-66,-106,-93
1818,9,-106,-116,49,62,-112,26,0,-20,-66,-106,-93
1819,13,-100,-113,44,62,-106,26,0,-26,-66,-106,-93
1820,10,-104,-114,46,62,-109,33,0,-20,-66,-106,-93
1821,13,-106,-120,46,66,-113,40,0,-13,-66,-106,-93
1822,29,-90,-120,30,74,-105,40,0,-20,-66,-106,-93
1823,33,-80,-113,24,73,-97,40,0,-13,-66,-93,-93
1824,33,-77,-110,22,72,-94,40,-6,-13,-66,-113,-100
1825,26,-86,-113,30,69,-100,40,0,-13,-66,-106,-93
1826,24,-89,-113,33,68,-101,33,-6,-13,-66,-100,-100
1827,20,-86,-106,33,62,-97,26,0,-13,-66,-93,-93
1828,22,-82,-105,30,64,-94,33,0,-13,-60,-86,-73
1829,20,-80,-100,30,60,-90,40,0,-13,-53,-80,-80
1830,20,-73,-93,26,56,-84,33,0,-13,-60,-80,-86
1831,26,-73,-100,24,62,-86,26,0,-13,-66,-80,-93
1832,36,-73,-109,18,72,-92,33,0,-13,-53,-86,-86
1833,46,-66,-113,10,80,-90,40,0,-26,-66,-93,-93
1834,53,-66,-120,6,86,-93,40,0,-6,-66,-86,-93
1835,53,-66,-120,6,86,-93,40,0,-13,-66,-80,-93
1836,53,-64,-117,5,85,-90,46,0,-13,-66,-80,-86
1837,60,-60,-120,0,89,-90,40,0,-13,-66,-80,-93
1838,60,-53,-113,-2,86,-84,33,0,-13,-60,-80,-73
1839,60,-53,-113,-2,86,-84,40,0,0,-53,-80,-66
1840,57,-62,-120,2,88,-92,46,6,0,-53,-80,-66
1841,60,-53,-113,-2,86,-84,53,13,0,-53,-80,-80
1842,76,-56,-132,-9,104,-94,33,6,-20,-53,-86,-66
1843,73,-60,-133,-6,102,-97,26,0,-13,-40,-80,-66
1844,64,-66,-130,1,97,-98,26,6,-13,-53,-80,-66
1845,53,-66,-120,6,86,-93,26,13,-13,-53,-80,-66
1846,44,-73,-117,14,80,-96,40,6,-20,-60,-80,-66
1847,40,-80,-120,20,80,-100,26,0,-40,-66,-80,-66
1848,30,-80,-110,25,70,-96,26,-6,-26,-53,-80,-66
1849,20,-80,-100,30,60,-90,26,-13,-26,-66,-80,-66
1850,33,-66,-100,17,66,-84,26,-6,-40,-53,-80,-66
1851,40,-53,-93,6,66,-73,26,0,-26,-53,-80,-66
1852,37,-49,-86,6,61,-68,26,0,-33,-66,-80,-60
1853,33,-53,-86,10,60,-70,26,0,-26,-53,-80,-53
1854,37,-62,-100,13,68,-81,20,-6,-33,-53,-80,-53
1855,20,-86,-106,33,62,-97,13,-13,-40,-53,-80,-53
1856,26,-76,-102,25,64,-89,13,0,-26,-53,-66,-40
1857,20,-93,-113,37,66,-104,26,0,-26,-53,-66,-53
1858,6,-104,-110,49,58,-108,20,6,-40,-53,-73,-60
1859,13,-93,-106,40,60,-100,26,0,-40,-53,-66,-66
1860,22,-90,-113,34,68,-102,26,0,-40,-46,-66,-66
1861,20,-86,-106,33,62,-97,26,0,-40,-40,-66,-66
1862,17,-82,-100,33,58,-92,26,0,-26,-40,-60,-53
1863,-6,-86,-80,46,36,-84,26,0,-26,-40,-66,-53
1864,-6,-84,-77,45,34,-81,13,0,-20,-40,-66,-53
1865,-6,-80,-73,44,33,-77,26,0,-26,-40,-66,-53
1866,0,-70,-70,36,34,-70,26,0,-26,-46,-73,-46
1867,-6,-66,-60,37,26,-64,26,0,-26,-53,-66,-40
1868,-6,-69,-62,38,28,-66,33,-6,-20,-53,-80,-40
1869,-13,-73,-60,44,22,-66,26,-13,-13,-53,-80,-40
1870,-4,-64,-60,34,28,-62,20,-13,-13,-33,-73,-40
1871,0,-60,-60,30,29,-60,13,-13,-13,-40,-53,-40
1872,-6,-62,-56,34,24,-60,33,-6,-13,-40,-66,-26
1873,-13,-60,-46,37,16,-53,26,-13,-13,-26,-53,-26
1874,-13,-69,-56,41,21,-62,20,-20,-26,-46,-53,-26
1875,-13,-66,-53,40,20,-60,13,-13,-26,-40,-53,-26
1876,-4,-64,-60,34,28,-62,6,-26,-26,-40,-53,-26
1877,13,-53,-66,20,40,-60,0,-26,-40,-40,-53,-26
1878,17,-56,-73,20,45,-65,6,-20,-20,-33,-60,-26
1879,20,-53,-73,17,46,-64,13,-13,-13,-26,-53,-26
1880,16,-49,-65,17,40,-57,20,-13,-13,-33,-60,-26
1881,13,-53,-66,20,40,-60,26,-13,-13,-26,-53,-13
1882,22,-46,-69,12,45,-58,26,-13,-20,-26,-53,-20
1883,46,-26,-73,-9,60,-50,26,-13,-26,-26,-53,-13
1884,44,-17,-61,-13,52,-40,26,-13,-26,-26,-46,-13
1885,46,0,-46,-22,46,-24,26,-13,-26,-26,-40,-13
1886,62,13,-49,-37,56,-18,20,-13,-13,-26,-40,-13
1887,60,20,-40,-40,49,-10,13,-13,-26,-13,-40,-13
1888,69,22,-46,-45,57,-12,13,-13,-33,-13,-40,0
1889,60,26,-33,-42,46,-4,13,-13,-26,-13,-26,-13
1890,50,17,-33,-33,41,-8,13,-13,-26,-13,-40,-20
1891,53,20,-33,-36,42,-6,13,-13,-26,-13,-26,-13
1892,53,26,-26,-40,40,0,6,-20,-26,-13,-26,-13
1893,53,26,-26,-40,40,0,0,-26,-26,-13,-26,-13
1894,44,30,-13,-37,28,8,0,-26,-26,-20,-33,-13
1895,46,26,-20,-36,33,2,0,-26,-26,-26,-26,-13
1896,53,26,-26,-40,40,0,0,-33,-33,-13,-33,-6
1897,46,26,-20,-36,33,2,0,-40,-40,-13,-26,-13
1898,44,17,-26,-30,34,-5,0,-33,-33,-6,-20,-13
1899,46,20,-26,-33,36,-4,0,-26,-26,0,-13,0
1900,37,20,-17,-28,26,1,0,-46,-26,-6,-13,0
1901,26,26,0,-26,13,13,0,-40,-26,-13,0,0
1902,24,33,9,-28,6,21,-6,-46,-20,0,0,0
1903,26,46,20,-36,2,33,-13,-53,-26,0,0,13
1904,42,56,13,-49,14,34,-26,-46,-46,6,13,13
1905,33,66,33,-49,0,49,-26,-53,-53,13,13,13
1906,46,66,20,-56,13,42,-33,-53,-40,6,13,13
1907,46,66,20,-56,13,42,-40,-53,-53,0,13,13
1908,40,86,46,-62,-4,66,-33,-53,-33,20,33,33
1909,40,86,46,-62,-4,66,-26,-53,-40,26,40,40
1910,46,90,44,-68,1,66,-33,-53,-33,13,33,46
1911,40,93,53,-66,-6,73,-40,-53,-40,13,40,40
1912,33,90,57,-61,-12,73,-33,-53,-33,6,33,40
1913,26,86,60,-56,-17,73,-40,-53,-26,26,40,40
1914,37,100,62,-68,-13,81,-46,-73,-26,26,53,53
1915,33,106,73,-69,-20,89,-53,-66,-26,26,66,53
1916,29,120,90,-74,-30,105,-53,-80,-26,26,60,60
1917,40,133,93,-86,-26,113,-53,-80,-26,26,66,66
1918,42,133,90,-88,-24,112,-53,-60,-40,33,66,80
1919,53,146,93,-100,-20,120,-53,-66,-40,26,80,80
1920,69,160,90,-114,-10,125,-46,-66,-33,40,80,80
1921,86,180,93,-133,-4,136,-53,-66,-26,53,80,93
1922,89,196,106,-142,-9,150,-46,-60,-20,53,100,93
1923,106,206,100,-156,2,153,-40,-53,-13,66,106,106
1924,113,213,100,-162,6,156,-46,-60,-6,66,106,106
1925,113,220,106,-166,2,162,-53,-66,0,66,120,106
1926,113,217,104,-165,4,160,-53,-66,0,66,113,120
1927,113,226,113,-169,0,169,-53,-66,0,80,120,120
1928,106,230,124,-168,-9,177,-53,-66,-13,73,126,126
1929,100,226,126,-162,-13,176,-53,-66,-13,66,120,120
1930,97,249,152,-173,-28,200,-60,-66,-6,80,140,133
1931,93,253,160,-173,-33,206,-66,-66,0,80,146,133
1932,100,273,173,-186,-37,222,-60,-66,0,86,146,153
1933,106,286,180,-196,-37,233,-66,-66,0,93,146,160
1934,104,286,182,-194,-40,234,-73,-60,0,100,166,173
1935,100,286,186,-193,-44,236,-80,-53,0,93,173,173
1936,90,293,202,-192,-56,248,-80,-53,-6,93,173,173
1937,93,300,206,-196,-57,253,-80,-53,0,93,186,186
1938,106,316,209,-210,-52,262,-80,-53,6,93,186,186
1939,113,320,206,-216,-46,262,-80,-53,13,106,186,186
1940,117,336,218,-226,-50,277,-86,-53,13,106,200,200
1941,120,340,220,-229,-50,280,-93,-53,13,106,200,200
1942,116,344,228,-229,-56,285,-93,-73,13,106,200,206
1943,120,346,226,-233,-53,286,-93,-66,13,106,213,213
1944,120,340,220,-229,-50,280,-100,-66,13,120,200,220
1945,120,340,220,-229,-50,280,-106,-66,13,120,213,213
1946,117,366,249,-241,-66,308,-100,-60,13,126,220,220
1947,120,380,260,-249,-70,320,-93,-53,26,133,240,226
1948,122,380,257,-250,-68,318,-93,-53,26,133,240,240
1949,133,386,253,-260,-60,320,-93,-53,26,133,240,240
1950,136,409,273,-272,-69,341,-86,-46,26,126,240,246
1951,140,420,280,-280,-70,349,-93,-53,26,133,240,253
1952,160,426,266,-293,-53,346,-86,-53,26,133,246,246
1953,153,426,273,-289,-60,349,-80,-53,26,133,240,253
1954,144,413,269,-278,-62,341,-80,-53,33,140,240,260
1955,146,420,273,-282,-64,346,-80,-40,40,146,240,266
1956,140,413,273,-276,-66,342,-80,-53,40,146,240,266
1957,146,406,260,-276,-57,333,-80,-53,40,146,240,266
1958,140,406,266,-273,-64,336,-80,-53,40,146,240,260
1959,126,406,280,-266,-77,342,-80,-40,40,146,253,266
1960,126,406,280,-266,-77,342,-80,-53,40,146,253,266
1961,120,406,286,-262,-84,346,-80,-53,40,146,253,266
1962,117,409,292,-262,-88,350,-86,-53,40,140,260,273
1963,113,413,300,-262,-93,356,-93,-53,40,146,266,280
1964,113,406,293,-260,-90,349,-100,-53,33,126,266,273
1965,120,406,286,-262,-84,346,-106,-53,26,133,266,266
1966,104,413,309,-258,-102,361,-100,-60,33,140,266,280
1967,93,413,320,-253,-113,366,-93,-66,40,133,266,280
1968,86,410,324,-248,-118,366,-93,-66,33,146,266,280
1969,73,406,333,-240,-130,369,-93,-66,40,146,280,280
1970,93,420,326,-256,-117,373,-86,-53,46,153,273,286
1971,106,433,326,-269,-110,380,-80,-66,53,160,280,293
1972,102,440,337,-270,-117,388,-80,-53,53,160,273,286
1973,113,453,340,-282,-113,396,-66,-53,53,160,280,293
1974,116,456,340,-285,-112,397,-80,-53,53,160,286,293
1975,126,460,333,-293,-104,396,-80,-53,53,160,280,293
1976,140,473,333,-306,-97,402,-86,-66,53,166,280,300
1977,146,480,333,-313,-93,406,-80,-66,53,173,280,306
1978,149,476,326,-312,-89,401,-93,-60,53,160,280,313
1979,153,480,326,-316,-86,402,-93,-66,53,160,280,306
1980,153,476,322,-314,-85,398,-80,-66,53,173,286,300
1981,146,480,333,-313,-93,406,-80,-66,53,160,280,293
1982,144,470,326,-306,-92,398,-86,-66,46,160,280,293
1983,140,466,326,-302,-93,396,-93,-66,40,160,280,293
1984,124,453,329,-288,-102,390,-93,-66,40,153,273,300
1985,106,440,333,-273,-113,386,-93,-66,40,133,280,293
1986,109,436,326,-272,-109,381,-93,-66,40,146,273,293
1987,106,433,326,-269,-110,380,-93,-66,40,133,266,293
1988,113,424,310,-268,-98,366,-93,-66,40,133,253,293
1989,113,420,306,-266,-97,362,-93,-53,40,133,253,280
1990,113,413,300,-262,-93,356,-80,-60,40,140,260,280
1991,120,406,286,-262,-84,346,-80,-66,40,146,253,280
1992,110,400,289,-254,-89,344,-80,-66,46,133,253,286
1993,106,393,286,-249,-90,340,-80,-66,40,133,253,280
1994,96,384,288,-240,-96,336,-86,-60,53,126,233,280
1995,106,380,273,-242,-84,326,-93,-53,40,120,226,266
1996,106,373,266,-240,-80,320,-86,-60,40,120,226,260
1997,106,366,260,-236,-77,313,-93,-53,53,120,213,253
1998,96,349,253,-222,-78,301,-86,-53,40,113,213,240
1999,100,346,246,-222,-73,296,-80,-53,53,120,200,240
2000,100,344,244,-221,-72,293,-80,-60,40,113,200,226
2001,93,320,226,-206,-66,273,-66,-53,53,106,200,226
2002,93,320,226,-206,-66,273,-80,-46,40,113,186,233
2003,73,306,233,-189,-80,269,-66,-40,53,106,186,226
2004,66,300,233,-182,-84,266,-60,-33,60,106,193,226
2005,66,300,233,-182,-84,266,-53,-26,66,106,186,226
2006,76,302,226,-189,-76,264,-60,-20,66,106,206,233
2007,86,300,213,-193,-64,256,-53,-26,66,106,200,226
2008,102,313,210,-208,-54,261,-53,-26,66,100,186,213
2009,120,313,193,-216,-37,253,-53,-26,66,93,186,213
2010,116,306,190,-210,-37,248,-46,-26,66,100,193,193
2011,113,300,186,-206,-37,242,-40,-26,66,93,186,186
2012,97,293,196,-194,-49,244,-46,-33,60,93,180,186
2013,93,273,180,-182,-44,226,-53,-40,53,93,173,173
2014,86,264,177,-174,-45,220,-46,-20,60,86,153,166
2015,93,253,160,-173,-33,206,-40,-13,66,80,146,146
2016,80,230,150,-154,-36,190,-46,-6,73,73,120,146
2017,73,213,140,-142,-33,176,-40,0,80,80,106,133
2018,80,200,120,-140,-20,160,-26,6,73,80,93,133
2019,80,186,106,-133,-13,146,-13,13,66,80,93,120
2020,80,177,97,-128,-9,137,-13,13,66,80,80,120
2021,80,166,86,-122,-4,126,-13,13,53,80,80,106
2022,86,169,82,-128,1,125,-13,13,73,86,80,106
2023,80,166,86,-122,-4,126,-13,26,66,80,80,106
2024,77,160,82,-118,-2,121,-20,13,66,66,66,93
2025,73,146,73,-109,0,109,-13,13,66,53,66,93
2026,73,153,80,-113,-4,116,-6,26,73,66,66,80
2027,73,153,80,-113,-4,116,0,40,80,66,80,80
2028,73,150,77,-112,-2,113,0,26,73,60,60,80
2029,73,140,66,-106,2,102,0,26,66,53,53,66
2030,70,133,62,-101,4,97,0,13,66,46,53,66
2031,73,120,46,-96,13,82,0,26,66,40,40,66
2032,76,122,46,-98,14,84,6,20,46,40,40,53
2033,73,126,53,-100,9,89,13,26,40,26,40,53
2034,70,106,36,-88,17,70,0,13,40,33,33,40
2035,66,100,33,-82,16,66,0,13,40,40,40,40
2036,57,93,36,-74,10,64,0,13,40,46,40,40
2037,60,93,33,-76,13,62,0,13,40,53,40,40
2038,44,93,49,-68,-2,70,0,13,33,40,26,46
2039,33,93,60,-62,-13,76,0,13,26,40,26,40
2040,42,93,50,-68,-4,72,13,20,33,40,26,33
2041,40,93,53,-66,-6,73,13,26,40,40,26,26
2042,42,82,40,-62,1,61,6,13,26,26,13,13
2043,46,80,33,-62,6,56,0,13,26,26,13,13
2044,44,70,26,-57,8,48,0,20,33,26,20,13
2045,40,60,20,-49,9,40,13,26,40,26,13,13
2046,44,53,9,-48,17,30,13,26,33,26,6,0
2047,40,46,6,-42,16,26,13,26,26,26,0,0
2048,49,46,-2,-48,25,21,26,33,33,33,-13,6
2049,53,40,-13,-46,33,13,26,40,26,26,-13,0
2050,53,33,-20,-42,36,6,26,40,26,26,-13,0
2051,53,40,-13,-46,33,13,26,40,40,26,-13,0
2052,53,24,-29,-38,41,-2,20,40,26,26,-6,-6
2053,46,6,-40,-26,42,-17,13,40,26,13,-13,-13
2054,37,0,-37,-18,37,-18,20,40,33,20,-20,-13
2055,40,-13,-53,-13,46,-33,13,40,40,0,-26,-13
2056,36,-10,-46,-12,41,-29,13,40,40,6,-26,-6
2057,46,-13,-60,-16,53,-37,13,40,26,13,-26,-13
2058,53,0,-53,-26,53,-26,13,40,40,13,-26,-13
2059,46,0,-46,-22,46,-24,13,40,40,13,-26,-13
2060,62,6,-56,-34,58,-25,13,46,26,6,-20,-13
2061,73,13,-60,-42,66,-24,0,53,26,-13,-26,-13
2062,62,13,-49,-37,56,-18,0,40,26,0,-33,-26
2063,60,6,-53,-33,56,-24,0,40,26,-13,-40,-26
2064,53,4,-49,-28,50,-22,0,40,26,-13,-33,-33
2065,46,6,-40,-26,42,-17,0,40,26,-13,-40,-40
2066,53,2,-50,-28,52,-24,0,33,20,-20,-46,-40
2067,53,0,-53,-26,53,-26,0,53,26,-13,-40,-40
2068,49,-6,-56,-21,52,-32,0,33,26,-13,-53,-40
2069,53,-6,-60,-22,56,-33,0,40,26,0,-53,-40
2070,66,0,-66,-33,66,-33,0,40,26,-13,-46,-46
2071,73,-6,-80,-33,76,-44,0,40,26,-13,-40,-53
2072,64,-9,-73,-26,68,-41,-6,40,26,-13,-46,-53
2073,53,-13,-66,-20,60,-40,-13,26,26,-13,-53,-53
2074,66,-6,-73,-29,69,-40,-6,33,26,-20,-46,-53
2075,66,0,-66,-33,66,-33,0,40,26,-13,-40,-53
2076,64,0,-64,-32,64,-32,0,33,33,-20,-40,-53
2077,66,0,-66,-33,66,-33,0,40,40,-13,-40,-53
2078,66,0,-66,-33,66,-33,-6,20,13,-20,-60,-73
2079,60,-6,-66,-26,62,-37,-13,13,13,-26,-53,-66
2080,57,-26,-84,-14,70,-56,-13,20,13,-33,-66,-73
2081,53,-40,-93,-6,73,-66,-13,13,13,-40,-66,-93
2082,44,-44,-88,0,65,-66,-6,20,6,-40,-66,-73
2083,40,-40,-80,0,60,-60,0,26,0,-40,-66,-80
2084,53,-33,-86,-9,69,-60,0,13,0,-33,-66,-80
2085,46,-46,-93,0,69,-70,0,13,0,-26,-80,-80
2086,53,-53,-106,0,80,-80,6,13,6,-40,-86,-73
2087,60,-46,-106,-6,82,-77,13,13,0,-40,-80,-66
2088,66,-44,-110,-10,88,-77,6,13,6,-46,-93,-73
2089,60,-46,-106,-6,82,-77,13,13,13,-53,-93,-66
2090,64,-46,-110,-8,86,-78,13,6,13,-53,-93,-73
2091,66,-46,-113,-9,89,-80,13,0,13,-53,-93,-80
2092,57,-56,-113,0,85,-85,13,0,6,-60,-86,-80
2093,53,-60,-113,4,82,-86,13,0,0,-66,-80,-80
2094,37,-73,-110,18,73,-92,13,0,0,-66,-80,-80
2095,26,-80,-106,26,66,-93,13,0,0,-66,-93,-80
2096,22,-89,-112,33,66,-101,6,0,0,-66,-73,-80
2097,26,-86,-113,30,69,-100,13,0,0,-66,-80,-80
2098,29,-90,-120,30,74,-105,0,-6,0,-66,-86,-80
2099,26,-86,-113,30,69,-100,0,-13,0,-80,-93,-80
2100,29,-77,-106,24,68,-92,13,-13,0,-66,-86,-73
2101,40,-66,-106,13,73,-86,13,-13,0,-66,-80,-66
2102,37,-60,-97,12,66,-78,13,-6,0,-66,-80,-66
2103,40,-60,-100,10,69,-80,13,0,0,-66,-80,-66
2104,36,-53,-89,9,62,-72,13,-6,0,-66,-73,-73
2105,40,-53,-93,6,66,-73,13,-13,0,-66,-66,-80
2106,33,-73,-106,20,69,-90,6,-6,-6,-73,-80,-86
2107,33,-86,-120,26,76,-104,0,0,-13,-80,-93,-93
2108,33,-93,-126,30,80,-110,0,0,-6,-80,-93,-93
2109,26,-100,-126,37,76,-113,0,0,0,-80,-93,-93
2110,29,-102,-132,37,80,-117,0,6,-6,-86,-100,-93
2111,26,-113,-140,44,82,-126,-13,0,-13,-80,-106,-93
2112,20,-116,-136,48,77,-126,6,-13,-6,-80,-106,-93
2113,13,-126,-140,57,76,-133,13,-13,0,-80,-106,-93
2114,4,-136,-140,66,72,-138,-6,-20,0,-80,-100,-86
2115,0,-126,-126,64,62,-126,0,-26,0,-66,-93,-80
2116,13,-130,-144,58,78,-137,6,-13,-6,-73,-106,-80
2117,13,-120,-133,53,73,-126,13,-13,-13,-66,-93,-93
2118,17,-117,-134,50,76,-126,13,-13,-6,-60,-113,-86
2119,13,-106,-120,46,66,-113,13,0,0,-53,-106,-80
2120,16,-100,-116,42,65,-108,13,0,0,-60,-100,-73
2121,13,-100,-113,44,62,-106,13,-13,0,-66,-106,-80
2122,13,-93,-106,40,60,-100,13,0,6,-53,-100,-80
2123,13,-93,-106,40,60,-100,13,0,13,-66,-106,-80
2124,10,-97,-108,44,58,-102,20,6,13,-66,-106,-73
2125,6,-100,-106,46,56,-104,26,0,13,-66,-120,-80
2126,4,-96,-100,46,52,-98,26,-6,0,-66,-120,-80
2127,0,-100,-100,50,49,-100,26,0,13,-66,-120,-80
2128,6,-96,-102,45,54,-100,26,0,13,-66,-113,-73
2129,6,-100,-106,46,56,-104,26,0,13,-66,-120,-80
2130,2,-102,-105,50,53,-104,20,0,13,-53,-126,-80
2131,0,-113,-113,57,56,-113,13,0,13,-53,-133,-80
2132,0,-102,-102,52,50,-102,13,0,13,-66,-126,-80
2133,0,-106,-106,53,53,-106,13,0,13,-66,-120,-80
2134,6,-113,-120,53,62,-117,13,0,13,-66,-126,-80
2135,6,-113,-120,53,62,-117,13,0,0,-66,-133,-80
2136,6,-106,-113,50,60,-110,13,-6,13,-66,-126,-80
2137,6,-113,-120,53,62,-117,13,0,13,-66,-120,-80
2138,-2,-120,-117,61,57,-118,13,-6,13,-66,-120,-80
2139,0,-113,-113,57,56,-113,13,0,13,-53,-120,-80
2140,9,-106,-116,49,62,-112,6,-6,6,-66,-120,-86
2141,13,-113,-126,50,69,-120,0,-13,0,-66,-120,-93
2142,10,-120,-130,54,70,-125,6,-6,0,-66,-126,-93
2143,6,-113,-120,53,62,-117,13,0,0,-66,-133,-93
2144,6,-126,-133,60,69,-130,0,0,0,-66,-133,-93
2145,13,-120,-133,53,73,-126,13,0,0,-66,-133,-93
2146,13,-117,-130,52,72,-124,13,6,0,-66,-133,-86
2147,13,-113,-126,50,69,-120,13,13,0,-53,-120,-80
2148,6,-109,-116,52,61,-113,6,13,0,-73,-120,-80
2149,0,-113,-113,57,56,-113,0,13,0,-66,-120,-80
2150,0,-116,-116,58,57,-116,6,20,0,-66,-120,-86
2151,0,-113,-113,57,56,-113,13,26,0,-66,-120,-80
2152,-4,-110,-106,57,50,-109,13,26,0,-60,-120,-73
2153,-6,-113,-106,60,49,-110,13,26,0,-53,-120,-66
2154,2,-117,-120,57,61,-118,13,26,0,-60,-120,-80
2155,6,-106,-113,50,60,-110,13,26,0,-66,-120,-80
2156,16,-104,-120,44,68,-112,13,33,0,-60,-113,-66
2157,26,-93,-120,33,73,-106,13,40,0,-53,-106,-66
2158,33,-100,-133,33,82,-117,13,40,0,-60,-106,-73
2159,33,-100,-133,33,82,-117,13,40,0,-66,-106,-80
2160,17,-100,-117,41,66,-109,13,33,13,-53,-100,-80
2161,13,-100,-113,44,62,-106,13,26,0,-53,-106,-80
2162,17,-90,-108,37,62,-100,20,26,0,-46,-100,-86
2163,13,-80,-93,33,53,-86,26,40,13,-40,-93,-80
2164,16,-84,-100,34,57,-92,26,26,13,-40,-93,-93
2165,13,-73,-86,30,49,-80,26,40,0,-40,-93,-80
2166,22,-80,-102,29,62,-92,26,40,20,-40,-86,-80
2167,20,-86,-106,33,62,-97,26,53,13,-40,-106,-80
2168,20,-86,-106,33,62,-97,26,46,13,-40,-86,-80
2169,13,-86,-100,37,56,-93,13,40,13,-40,-93,-80
2170,17,-84,-101,33,58,-93,20,46,6,-40,-93,-80
2171,6,-73,-80,33,42,-77,13,40,13,-26,-80,-80
2172,13,-70,-84,29,48,-77,13,26,0,-46,-80,-73
2173,20,-73,-93,26,56,-84,13,26,13,-40,-80,-66
2174,20,-64,-84,22,52,-74,13,20,20,-33,-80,-66
2175,33,-46,-80,6,56,-64,13,13,26,-26,-66,-66
2176,36,-46,-82,5,58,-65,20,20,26,-26,-73,-60
2177,33,-46,-80,6,56,-64,26,26,26,-26,-80,-66
2178,20,-49,-69,14,44,-60,26,33,26,-26,-86,-66
2179,13,-60,-73,24,42,-66,26,40,26,-13,-80,-66
2180,17,-66,-84,25,50,-76,26,33,26,-20,-93,-66
2181,20,-73,-93,26,56,-84,26,26,26,-26,-93,-66
2182,20,-50,-70,16,45,-61,26,26,33,-13,-80,-60
2183,20,-40,-60,10,40,-50,26,26,40,0,-66,-53
2184,26,-33,-60,4,42,-46,26,26,33,-6,-66,-53
2185,33,-26,-60,-2,46,-44,26,40,40,-13,-66,-53
2186,36,-36,-72,0,53,-54,20,13,13,-13,-73,-53
2187,40,-33,-73,-2,56,-53,13,13,13,-13,-80,-53
2188,33,-24,-57,-4,45,-41,20,26,13,-6,-80,-53
2189,40,-13,-53,-13,46,-33,26,26,0,0,-66,-53
2190,40,-13,-53,-13,46,-33,26,26,13,0,-66,-40
2191,40,-20,-60,-9,49,-40,26,26,13,0,-66,-40
2192,44,-13,-57,-14,50,-36,26,26,13,0,-60,-33
2193,33,-20,-53,-6,42,-37,26,26,13,0,-53,-26
2194,36,-20,-56,-8,45,-38,26,26,20,-6,-53,-26
2195,40,-20,-60,-9,49,-40,13,13,13,-13,-53,-26
2196,37,-20,-57,-8,46,-38,6,20,6,-13,-53,-26
2197,40,-13,-53,-13,46,-33,13,26,13,-13,-53,-26
2198,49,-4,-53,-22,50,-29,13,20,13,-13,-53,-26
2199,60,0,-60,-29,60,-30,13,26,13,0,-53,-26
2200,56,6,-49,-30,52,-21,20,33,20,6,-53,-20
2201,60,13,-46,-36,53,-17,26,40,26,0,-53,-13
2202,46,6,-40,-26,42,-17,33,40,26,6,-53,-13
2203,40,6,-33,-22,36,-13,26,40,26,0,-53,-13
2204,44,-2,-46,-20,45,-25,13,33,20,0,-53,-20
2205,26,-13,-40,-6,33,-26,13,26,13,0,-53,-26
2206,17,-20,-37,1,26,-29,13,33,13,0,-53,-26
2207,13,-26,-40,6,26,-33,13,40,13,0,-53,-26
2208,13,-26,-40,6,26,-33,13,40,6,-6,-53,-26
2209,13,-26,-40,6,26,-33,13,40,0,-13,-53,-26
2210,10,-26,-37,8,24,-32,13,33,0,-13,-60,-26
2211,6,-26,-33,10,20,-30,13,40,0,-13,-66,-26
2212,6,-24,-30,9,18,-28,13,26,0,-13,-53,-26
2213,6,-20,-26,6,16,-24,13,26,0,-13,-53,-26
2214,6,-10,-17,2,12,-14,13,46,6,0,-46,-26
2215,6,-20,-26,6,16,-24,13,40,13,0,-53,-26
2216,2,-17,-20,8,10,-18,13,33,6,-6,-53,-26
2217,6,-13,-20,4,13,-17,0,26,0,0,-53,-26
2218,2,-17,-20,8,10,-18,20,33,6,-6,-53,-33
2219,6,-13,-20,4,13,-17,26,40,0,0,-53,-40
2220,22,-13,-36,-4,29,-25,20,33,6,0,-46,-33
2221,40,0,-40,-20,40,-20,13,26,0,0,-40,-26
2222,46,16,-30,-30,38,-8,20,20,6,0,-40,-20
2223,40,20,-20,-29,29,0,26,13,13,0,-40,-13
2224,33,16,-17,-24,25,-1,13,13,13,0,-33,-6
2225,40,13,-26,-26,33,-6,13,13,13,0,-26,0
2226,33,22,-10,-28,21,5,20,13,13,0,-33,-6
2227,33,20,-13,-26,22,2,13,13,13,0,-40,-13
2228,40,17,-22,-28,30,-2,20,13,20,0,-40,-13
2229,40,13,-26,-26,33,-6,26,13,26,0,-40,-13
2230,37,0,-37,-18,37,-18,20,13,20,0,-40,-6
2231,26,-6,-33,-9,29,-20,13,13,13,0,-40,0
2232,24,-13,-37,-5,30,-25,13,6,6,0,-33,-20
2233,6,-20,-26,6,16,-24,13,0,0,0,-26,-13
2234,10,-22,-33,6,21,-28,13,6,0,-6,-26,-13
2235,13,-26,-40,6,26,-33,13,13,0,-13,-26,-13
2236,6,-33,-40,13,22,-37,13,13,6,-6,-26,-20
2237,6,-33,-40,13,22,-37,13,13,13,0,-26,-26
2238,9,-17,-26,4,17,-22,20,13,6,0,-20,-20
2239,20,-20,-40,0,29,-30,26,13,0,-13,-26,-26
2240,6,-29,-36,12,21,-33,20,6,0,-13,-13,-26
2241,6,-26,-33,10,20,-30,13,0,0,0,-13,-13
2242,16,-20,-36,2,25,-28,13,0,6,-13,-6,-20
2243,13,-20,-33,4,22,-26,13,0,13,0,0,-13
2244,16,-17,-33,1,24,-25,6,0,6,-6,-13,-6
2245,33,-6,-40,-13,36,-24,0,0,0,0,-13,0
2246,26,-13,-40,-6,33,-26,6,0,6,-6,-20,0
2247,20,-13,-33,-2,26,-24,13,0,13,-13,-26,0
2248,13,-20,-33,4,22,-26,20,6,20,-13,-26,-6
2249,6,-33,-40,13,22,-37,26,0,26,-13,-26,-13
2250,26,-30,-57,2,41,-44,33,20,13,-13,-33,-13
2251,33,-33,-66,0,49,-50,26,13,13,-13,-40,-13
2252,30,-36,-66,2,48,-52,20,20,13,-6,-40,-13
2253,33,-33,-66,0,49,-50,26,26,26,0,-40,-13
2254,29,-37,-66,4,48,-52,20,20,13,-6,-40,-20
2255,26,-33,-60,4,42,-46,13,13,13,-13,-40,-13
2256,36,-33,-69,-1,52,-52,26,13,13,-13,-40,-26
2257,40,-26,-66,-6,53,-46,26,13,13,-13,-40,-26
2258,40,-20,-60,-9,49,-40,13,13,20,-6,-40,-20
2259,46,-13,-60,-16,53,-37,13,13,26,0,-40,-13
2260,53,-4,-57,-24,54,-30,26,13,26,-6,-40,-20
2261,46,-6,-53,-20,49,-30,13,13,26,-13,-40,-26
2262,36,-13,-49,-10,42,-32,26,13,26,-13,-33,-26
2263,40,-13,-53,-13,46,-33,26,13,26,-13,-40,-26
2264,40,-16,-56,-12,48,-36,33,13,26,-13,-33,-26
2265,33,-20,-53,-6,42,-37,26,13,26,-13,-40,-26
2266,24,-36,-60,6,41,-48,13,6,26,-26,-26,-26
2267,13,-46,-60,17,36,-53,13,0,26,-13,-26,-26
2268,17,-53,-70,18,44,-62,20,6,33,-13,-33,-20
2269,13,-53,-66,20,40,-60,26,13,40,-13,-40,-13
2270,16,-53,-69,18,42,-61,20,6,40,-13,-26,-20
2271,6,-53,-60,24,33,-57,13,0,40,-13,-40,-26
2272,16,-50,-66,17,41,-58,20,0,40,-13,-26,-20
2273,13,-53,-66,20,40,-60,26,0,40,-13,-40,-13
2274,6,-53,-60,24,33,-57,26,0,33,-13,-33,-20
2275,0,-53,-53,26,26,-53,13,0,26,-26,-40,-26
2276,13,-49,-62,18,37,-56,6,-6,26,-13,-33,-26
2277,13,-60,-73,24,42,-66,0,-13,26,-26,-40,-26
2278,4,-56,-60,26,32,-58,13,-6,33,-13,-26,-26
2279,6,-60,-66,26,36,-64,13,0,40,-13,-26,-26
2280,10,-46,-57,18,33,-52,6,0,40,-6,-26,-26
2281,6,-40,-46,17,26,-44,13,0,40,0,-40,-26
2282,6,-44,-50,18,28,-48,26,6,40,-6,-33,-20
2283,6,-33,-40,13,22,-37,26,13,40,-13,-40,-13
2284,6,-26,-33,10,20,-30,20,13,46,-6,-26,-13
2285,0,-26,-26,13,13,-26,26,13,53,0,-26,-13
2286,-4,-20,-16,12,5,-18,26,20,46,6,-20,-20
2287,0,6,6,-2,-4,6,40,26,40,13,-13,-26
2288,-6,-4,2,5,-5,-1,46,26,46,20,-20,-26
2289,-13,13,26,0,-20,20,53,40,53,26,-13,-13
2290,-6,16,22,-4,-14,18,53,33,46,26,-6,-26
2291,0,33,33,-16,-17,33,53,40,53,26,0,-13
2292,6,42,36,-24,-14,38,60,46,53,26,-6,-13
2293,20,53,33,-36,-6,42,66,53,53,40,0,0
2294,22,46,24,-34,-1,34,66,66,73,40,0,0
2295,26,46,20,-36,2,33,66,66,80,40,0,0
2296,29,46,17,-37,5,32,80,80,80,46,6,-6
2297,33,53,20,-42,6,36,80,80,93,40,13,0
2298,26,50,24,-38,1,37,86,80,86,53,6,0
2299,26,46,20,-36,2,33,80,80,80,53,0,0
2300,17,46,29,-32,-6,37,86,80,86,53,6,0
2301,0,46,46,-22,-24,46,93,93,93,53,13,13
2302,0,46,46,-22,-24,46,86,80,80,53,20,20
2303,0,53,53,-26,-26,53,80,80,80,53,13,13
2304,4,53,49,-28,-22,50,80,86,80,53,13,6
2305,-6,53,60,-22,-33,56,80,93,80,53,13,0
2306,-6,53,60,-22,-33,56,93,100,86,46,13,20
2307,-6,60,66,-26,-37,62,93,106,93,53,13,26
2308,6,53,46,-29,-20,49,106,106,100,53,13,13
2309,20,60,40,-40,-10,49,106,106,106,40,13,13
2310,26,57,30,-41,-2,44,100,106,106,53,13,6
2311,20,40,20,-29,0,29,93,106,93,40,13,0
2312,26,53,26,-40,0,40,93,106,93,40,13,0
2313,33,60,26,-46,2,42,93,106,93,40,13,0
2314,29,62,33,-45,-2,48,80,93,93,40,6,0
2315,33,53,20,-42,6,36,80,93,93,40,0,0
2316,33,57,24,-45,4,40,80,86,93,40,6,6
2317,33,46,13,-40,9,29,66,80,80,40,13,13
2318,37,40,2,-38,17,21,73,66,80,20,13,13
2319,40,33,-6,-36,22,13,66,66,80,26,13,13
2320,40,30,-9,-34,24,10,60,73,80,33,13,20
2321,46,26,-20,-36,33,2,53,66,66,26,13,26
2322,44,24,-20,-33,32,1,33,53,60,13,-6,20
2323,40,20,-20,-29,29,0,26,40,53,0,0,13
2324,46,33,-13,-40,29,9,26,40,66,13,13,26
2325,46,46,0,-46,22,22,13,26,66,13,13,26
2326,49,60,10,-54,18,34,26,40,66,13,20,20
2327,66,73,6,-69,29,40,13,26,66,13,0,26
2328,89,86,-2,-88,45,41,13,33,53,13,0,20
2329,100,100,0,-100,49,49,13,40,53,13,0,26
2330,90,80,-10,-85,50,34,13,20,46,13,6,33
2331,86,73,-13,-80,49,29,0,13,26,26,0,26
2332,70,60,-10,-65,40,24,6,6,33,6,0,26
2333,60,53,-6,-56,33,22,0,13,26,0,-13,26
2334,53,46,-6,-49,29,20,0,0,26,6,-13,26
2335,60,40,-20,-49,40,9,0,0,13,0,-13,26
2336,60,26,-33,-42,46,-4,-13,-13,13,0,-20,13
2337,66,0,-66,-33,66,-33,-13,-13,0,-13,-13,13
2338,53,-9,-62,-21,57,-36,-13,-6,6,-6,-20,6
2339,46,-26,-73,-9,60,-50,-13,-13,0,-13,-26,0
2340,33,-33,-66,0,49,-50,-13,-13,0,-26,-26,0
2341,46,-40,-86,-2,66,-64,-13,-13,0,-26,-26,0
2342,49,-30,-80,-9,64,-56,-13,-6,-13,-33,-33,-6
2343,46,-33,-80,-6,62,-57,-26,0,-13,-26,-26,0
2344,40,-42,-82,1,61,-62,-20,-6,-13,-33,-40,-20
2345,33,-46,-80,6,56,-64,-26,-13,-13,-40,-40,-26
2346,24,-60,-84,18,53,-72,-6,6,-13,-33,-46,-26
2347,20,-66,-86,24,53,-77,0,13,-13,-26,-53,-26
2348,17,-73,-90,28,53,-82,-13,13,-13,-33,-53,-33
2349,13,-80,-93,33,53,-86,0,13,-13,-40,-53,-40
2350,13,-86,-100,37,56,-93,0,6,-13,-40,-53,-40
2351,13,-93,-106,40,60,-100,0,13,-13,-40,-53,-40
2352,13,-93,-106,40,60,-100,-6,13,-20,-40,-53,-40
2353,6,-93,-100,44,53,-97,0,13,-26,-40,-53,-40
2354,16,-93,-109,38,62,-101,-6,13,-6,-33,-60,-53
2355,13,-93,-106,40,60,-100,-13,13,-13,-40,-53,-53
2356,-2,-106,-104,54,50,-105,-6,13,-20,-46,-60,-60
2357,-20,-120,-100,70,40,-110,0,13,-26,-53,-80,-66
2358,-26,-133,-106,80,40,-120,-13,6,-26,-53,-73,-66
2359,-26,-140,-113,84,42,-126,-13,0,-26,-53,-80,-66
2360,-17,-120,-102,69,42,-112,0,-6,-33,-53,-80,-60
2361,-13,-113,-100,64,42,-106,0,-13,-40,-53,-80,-53
2362,0,-97,-97,49,48,-97,-13,-6,-33,-53,-80,-60
2363,20,-73,-93,26,56,-84,-13,-13,-26,-53,-80,-66
2364,33,-53,-86,10,60,-70,6,0,-26,-46,-60,-60
2365,46,-40,-86,-2,66,-64,13,0,-26,-40,-53,-53
2366,53,-37,-90,-8,72,-64,13,0,-20,-46,-53,-60
2367,53,-40,-93,-6,73,-66,13,0,-13,-40,-66,-53
2368,50,-33,-84,-8,66,-58,20,0,-20,-53,-60,-66
2369,46,-33,-80,-6,62,-57,13,0,-26,-53,-66,-53
2370,53,-42,-96,-5,74,-69,6,-13,-26,-53,-66,-60
2371,60,-40,-100,-9,80,-70,13,0,-26,-53,-66,-66
2372,56,-49,-105,-2,80,-77,13,0,-20,-40,-73,-66
2373,60,-53,-113,-2,86,-84,13,0,-13,-53,-80,-80
2374,66,-50,-117,-8,92,-84,13,0,-13,-53,-73,-66
2375,60,-53,-113,-2,86,-84,13,0,-13,-40,-66,-66
2376,60,-49,-109,-5,84,-80,13,0,-20,-40,-66,-60
2377,60,-46,-106,-6,82,-77,13,0,-26,-40,-66,-53
2378,53,-49,-102,-1,77,-76,13,-6,-20,-46,-66,-60
2379,46,-53,-100,4,73,-77,13,-13,-26,-53,-66,-66
2380,44,-66,-110,12,77,-89,6,-13,-20,-46,-73,-66
2381,26,-86,-113,30,69,-100,0,-13,-26,-40,-80,-66
2382,33,-73,-106,20,69,-90,6,-6,-26,-46,-80,-73
2383,33,-73,-106,20,69,-90,13,0,-26,-40,-80,-66
2384,26,-70,-97,22,61,-84,20,0,-20,-33,-66,-66
2385,26,-73,-100,24,62,-86,26,0,-26,-26,-66,-80
2386,20,-77,-97,29,58,-88,20,0,-20,-53,-66,-86
2387,26,-73,-100,24,62,-86,13,0,-26,-53,-66,-93
2388,4,-89,-93,42,48,-92,26,0,-33,-60,-73,-86
2389,-6,-106,-100,57,46,-104,13,0,-40,-66,-80,-80
2390,-9,-109,-100,60,45,-105,26,-6,-40,-60,-73,-80
2391,-20,-113,-93,66,36,-104,26,-13,-40,-53,-80,-80
2392,-17,-116,-98,66,40,-108,13,-6,-46,-60,-80,-93
2393,-20,-120,-100,70,40,-110,26,0,-26,-53,-80,-93
2394,-29,-117,-88,73,29,-102,26,0,-33,-40,-80,-73
2395,-33,-120,-86,77,26,-104,26,0,-40,-53,-80,-80
2396,-29,-126,-97,78,33,-112,26,0,-40,-53,-80,-86
2397,-33,-133,-100,84,33,-117,26,0,-40,-53,-80,-80
2398,-36,-142,-106,89,34,-125,26,-6,-40,-60,-80,-93
2399,-40,-140,-100,90,29,-120,26,-13,-40,-66,-80,-93
2400,-30,-137,-106,84,37,-122,20,6,-40,-66,-80,-93
2401,-26,-133,-106,80,40,-120,13,0,-40,-66,-80,-93
2402,-24,-126,-102,76,38,-114,13,-6,-40,-73,-80,-93
2403,-20,-126,-106,73,42,-117,13,-13,-53,-80,-80,-93
2404,-20,-122,-102,72,41,-113,13,-13,-53,-80,-80,-93
2405,-26,-133,-106,80,40,-120,13,-13,-53,-80,-80,-93
2406,-24,-117,-93,70,34,-105,13,-13,-53,-80,-80,-86
2407,-20,-113,-93,66,36,-104,13,-13,-53,-80,-80,-80
2408,-6,-110,-104,58,48,-108,13,-13,-46,-80,-73,-80
2409,-6,-100,-93,53,42,-97,13,-13,-40,-80,-66,-80
2410,-13,-106,-93,60,40,-100,13,-13,-46,-86,-73,-86
2411,-13,-106,-93,60,40,-100,13,-13,-53,-93,-80,-93
2412,-13,-116,-102,65,44,-109,13,-13,-46,-93,-93,-100
2413,-13,-126,-113,70,49,-120,13,-13,-40,-93,-106,-106
2414,0,-113,-113,57,56,-113,20,-6,-33,-86,-106,-106
2415,6,-100,-106,46,56,-104,26,0,-26,-80,-106,-106
2416,6,-96,-102,45,54,-100,26,0,-33,-73,-100,-106
2417,0,-100,-100,50,49,-100,26,0,-40,-66,-93,-106
2418,0,-106,-106,53,53,-106,26,0,-26,-73,-113,-100
2419,0,-106,-106,53,53,-106,26,0,-40,-80,-106,-93
2420,2,-100,-102,49,52,-101,20,-6,-40,-80,-106,-106
2421,0,-100,-100,50,49,-100,13,-13,-40,-80,-106,-106
2422,-2,-96,-93,49,45,-94,20,-13,-40,-80,-100,-106
2423,-6,-100,-93,53,42,-97,26,-13,-40,-80,-106,-106
2424,-9,-102,-93,56,41,-98,20,-6,-46,-93,-100,-113
2425,-13,-113,-100,64,42,-106,13,0,-53,-93,-93,-120
2426,-13,-120,-106,66,46,-113,20,0,-46,-100,-100,-120
2427,-20,-126,-106,73,42,-117,26,0,-40,-106,-106,-120
2428,-10,-124,-113,68,50,-118,13,0,-60,-100,-106,-113
2429,-6,-106,-100,57,46,-104,26,0,-53,-93,-106,-106
2430,2,-90,-93,44,48,-92,26,0,-53,-93,-106,-100
2431,6,-86,-93,40,49,-90,26,0,-53,-93,-106,-106
2432,13,-96,-109,41,61,-102,26,0,-53,-93,-106,-100
2433,13,-93,-106,40,60,-100,26,0,-53,-93,-106,-93
2434,20,-90,-110,36,65,-101,26,0,-53,-86,-100,-93
2435,20,-80,-100,30,60,-90,26,0,-53,-80,-93,-93
2436,17,-96,-113,40,65,-105,26,0,-53,-86,-93,-93
2437,13,-100,-113,44,62,-106,26,0,-53,-93,-93,-93
2438,16,-102,-118,44,66,-110,33,6,-46,-86,-100,-93
2439,13,-106,-120,46,66,-113,40,13,-40,-80,-106,-93
2440,13,-113,-126,50,69,-120,33,6,-46,-86,-106,-100
2441,13,-113,-126,50,69,-120,40,0,-53,-93,-106,-106
2442,20,-110,-130,45,74,-121,20,6,-53,-93,-106,-106
2443,13,-113,-126,50,69,-120,26,13,-53,-93,-106,-106
2444,20,-106,-126,44,73,-117,26,20,-53,-93,-106,-100
2445,13,-113,-126,50,69,-120,26,13,-53,-93,-106,-93
2446,13,-106,-120,46,66,-113,26,6,-46,-93,-113,-113
2447,13,-106,-120,46,66,-113,26,13,-40,-93,-120,-106
2448,13,-104,-117,45,65,-110,33,13,-46,-93,-120,-120
2449,13,-106,-120,46,66,-113,26,13,-53,-93,-120,-120
2450,17,-106,-124,45,70,-116,20,13,-53,-86,-120,-113
2451,13,-113,-126,50,69,-120,26,13,-53,-80,-120,-106
2452,4,-113,-117,54,60,-116,26,26,-53,-86,-120,-113
2453,-13,-120,-106,66,46,-113,26,26,-53,-93,-120,-120
2454,-16,-129,-113,73,48,-121,33,6,-53,-93,-126,-120
2455,-26,-140,-113,84,42,-126,26,0,-53,-93,-133,-120
2456,-20,-133,-113,77,46,-124,26,0,-53,-93,-133,-126
2457,-20,-140,-120,80,49,-130,26,0,-53,-93,-133,-120
2458,-24,-142,-118,84,46,-130,33,20,-40,-86,-120,-120
2459,-20,-146,-126,84,53,-137,26,26,-53,-93,-120,-120
2460,-26,-144,-117,85,45,-130,26,26,-40,-86,-126,-133
2461,-20,-146,-126,84,53,-137,40,40,-40,-80,-120,-133
2462,-26,-146,-120,86,46,-133,33,33,-40,-86,-120,-126
2463,-26,-153,-126,90,49,-140,40,40,-40,-80,-120,-133
2464,-26,-150,-124,89,48,-137,46,46,-26,-93,-120,-140
2465,-26,-153,-126,90,49,-140,53,66,-26,-80,-133,-133
2466,-30,-153,-122,92,45,-138,73,73,-6,-60,-126,-146
2467,-26,-160,-133,93,53,-146,93,93,0,-53,-133,-146
2468,-24,-150,-126,88,50,-138,93,100,13,-46,-126,-140
2469,-13,-133,-120,73,53,-126,93,93,26,-26,-106,-133
2470,-10,-140,-129,76,58,-134,106,106,20,-33,-106,-140
2471,-13,-133,-120,73,53,-126,106,106,26,-26,-93,-133
2472,-16,-122,-106,69,45,-114,113,100,26,-13,-93,-146
2473,-20,-100,-80,60,29,-90,120,93,26,0,-66,-133
2474,-22,-69,-46,46,12,-58,100,100,40,20,-40,-120
2475,-26,-46,-20,37,-4,-33,93,93,40,40,-13,-93
2476,2,-20,-22,9,12,-21,80,80,40,46,13,-66
2477,26,33,6,-29,9,20,80,80,66,80,53,-26
2478,30,93,62,-61,-16,77,73,86,60,106,120,33
2479,33,140,106,-86,-37,122,80,93,80,146,160,93
2480,44,190,146,-117,-52,168,80,113,100,180,213,126
2481,46,246,200,-146,-77,222,80,133,120,213,266,173
2482,53,313,260,-182,-104,286,73,140,126,246,333,246
2483,66,373,306,-220,-120,340,66,146,146,280,386,306
2484,86,437,350,-261,-132,393,60,153,173,333,446,353
2485,93,486,393,-289,-150,440,53,160,186,360,493,400
2486,110,540,429,-325,-160,484,60,193,213,413,566,460
2487,126,613,486,-369,-180,549,66,213,240,453,640,520
2488,156,700,544,-428,-194,621,60,220,260,506,700,593
2489,180,786,606,-482,-213,696,53,226,280,546,773,666
2490,190,857,666,-524,-238,761,53,233,320,606,840,726
2491,206,933,726,-569,-260,829,53,240,346,653,906,786
2492,226,1036,809,-630,-292,922,60,266,380,706,980,853
2493,246,1120,873,-682,-313,996,53,280,413,760,1053,933
2494,280,1220,940,-749,-330,1080,46,280,440,806,1120,1000
2495,306,1313,1006,-809,-350,1160,40,266,466,853,1186,1080
2496,320,1402,1082,-861,-381,1242,20,253,480,893,1246,1146
2497,313,1486,1173,-900,-430,1329,0,226,493,920,1293,1200
2498,300,1526,1226,-913,-464,1376,6,226,513,933,1300,1246
2499,280,1480,1200,-880,-460,1340,0,226,506,906,1253,1240
